2.974510063095929358e+00 6.546377337154927645e+00 5.929137329157165404e+00 6.114519620326306359e-01 9.096640752817571896e-01 3.031522311929093938e+00 2.388993102837730031e+00 1.030153195697075974e+00 3.292256340554026717e-01 8.342864294731412722e-02 1.170352874943153543e+00 3.328931450916961521e-01 2.287794508598433030e+00 3.714694300870039267e+00 1.079940099466389913e+00 1.448360147853681168e+00 2.789203762121667651e+00 3.838870082414151064e+00 5.055882365926014366e+00 2.086723769351535918e+00 8.837987231157791168e-01 2.384484116228902106e+00 1.002156353510420983e+00 3.214126708559581047e+00 6.662847158858289376e+00 2.979198152090748231e+00 3.917700420745051648e+00 5.807939637591225335e+00 3.773852560625159391e+00 4.069430109027048381e+00 8.846844959359483340e+00 7.713119972925731815e+00 3.340846948662605342e+00 1.127708743872981367e+00 1.646597425991244812e+00 2.254486633886665814e+00 1.709158741822868643e+00 1.538827539854288773e+00 1.479726568871317705e+00 1.529937804480177466e+00 1.766648022895862091e+00 1.481219560597376805e+00 7.482631050314222931e-02 9.247012807798803413e-01 1.027104477343322886e+00 6.675014681186636212e-01 1.113509872251570609e+00 6.189856940588369660e-01 1.504767685983792458e-01 8.432903812501539864e-01 4.231290264404344303e-01 5.992007871885243198e-01 2.218559929795981933e+00 4.105994987061934332e+00 3.435464702049198404e+00 4.342276035342500506e+00 3.254367297398400893e+01 1.258121176675717123e+01 9.847460409515508273e-01 1.139196443049125262e+00 7.342421159284766574e-01 4.689437193431830742e-01 4.771916732211767265e-01 1.294979719813268426e+00 1.428902597215582659e+00 1.179964155831587869e+00 6.996278578557825201e-01 1.589272444647516824e+00 3.733386201013765060e+00 3.441365262744814135e+00 1.946219639586994843e+00 1.165736436592969660e+00 4.174318553020164857e-01 7.785866291965813646e-02 1.346373375659277727e+00 1.844537468806848102e+00 1.679820316719639273e+00 3.527733581759461057e+00 5.828010222703826848e+00 3.428634382391425373e+00 2.234592730706088215e+00 3.910824964124903769e+00 4.614686470439940180e+00 2.622256281947879852e+00 1.169348930464332970e+00 5.278580262959148284e-01 1.112140628651253627e+00 1.141308884033478410e+00 1.326883124033348071e+00 2.667543595370806209e+00 4.525677098711805790e+00 2.609452395288322180e+00 1.271248603110995967e-01 3.313994419233295269e-02 2.100254385008326896e-01 4.894171659635662142e-01 9.195542505113259990e-01 1.146955298532146061e+00 1.948881377025819761e+00 2.305081401286356968e+00 1.528508187614134428e+00 1.430181561907527765e+00 1.148653858001975170e+00 7.115777253545161329e-01 1.045178524516819918e+00 8.050022034445818431e-01 5.186043496438055289e-01 2.844254484883422807e-01 2.095662659797248306e-01 1.046299496455368683e+00 2.488316385419915289e+00 2.936725771292066689e+00 3.392586327612443498e+00 4.360744378017256118e+00 8.962822305141799006e+00 2.169065153401733369e+03 1.299828666803016313e+04 4.645428107216313947e+03 3.756986540848085809e+00 2.166857297784143821e+00 7.700614688526943863e-02 6.581306962830814067e-01 3.373531933093387170e-01 1.986434953903190026e-01 5.457572768089281601e-01 3.889332669982412671e-01 1.087513037750264422e+00 1.983668139145285503e+00 2.789842695888112623e+00 3.720769878282838672e+00 4.563821326158572944e+00 4.015359420887138597e+00 3.068795507725415206e+00 2.805742748822023014e+00 2.500441023039071453e+00 1.325883469767931144e+00 4.162982515145920437e-01 1.739545025926448329e-01 4.964820099432101785e-01 1.199379429848295375e+00 1.088644444079599927e+00 1.285357159511743008e+00 1.181594269041295497e+00 5.182700588700921429e-01 3.830489914250875261e-01 1.338315849113910438e+00 1.660162628843859567e+00 1.693252134741538129e+00 2.314800513795765902e+00 1.665428518411895986e+00 8.972808850853073448e-01 1.228042375208143966e+00 8.360790358891512231e-01 1.699662320948367444e-01 1.361006769063546340e-01 1.282338539697767676e-01 2.301145569745144948e-01 3.237680714511009250e-01 4.603906609342659634e-02 7.797868220748392122e-03 6.374170155086746579e-03 1.495746806908606619e-01 2.521376269259187897e-01 4.012513448933204829e-01 4.310236842377996314e-01 4.420823133676732852e-01 7.828251657664740959e-01 7.297963902772891531e-01 2.411639159342276462e-01 3.436729140353485534e-01 5.974709455977184058e-01 3.902469338754462336e-01 2.068003844862116858e-01 1.941856549656857389e-01 1.165621592509885340e-01 4.897085876696655049e+01 2.735141943805283518e+02 1.133136114946110951e+02 1.720351164948416445e+00 7.420972218506206586e-01 1.086313905992734918e+00 7.625485566332297349e-01 7.742002263115973504e-01 5.789841030835256586e-01 3.394834956564161677e-01 4.667282106213867521e-01 3.613333363598498771e-01 8.895738532775356033e-02 8.025445317942887791e-02 8.502335972394882424e-02 1.307053368994079423e-01 1.870675995453168483e-01 1.905969547851172341e-01 8.814702938916001151e-02 4.273725323635376577e-02 1.596072286571914578e-01 1.685284277225434502e-01 3.251210649096753968e+01 7.699713966171508162e+01 6.649960903563344061e+01 3.378285023669317866e+01 9.644424526828970556e+00 1.793160923265705975e+01 4.896544615125063871e+01 5.528855226008924006e+01 4.039261491766832535e+01 2.767048774937171274e+01 1.444126712315829586e+01 7.645693570316033139e+00 1.286843941576008277e+01 4.347565555142791993e+01 9.017734304721733452e+01 1.376134353852655181e+02 1.529590344281774321e+02 2.082667254036930160e+02 2.044052364568494795e+02 1.382900077883976167e+02 1.117087064026683549e+02 9.271675697626086787e+01 4.932387658808092823e+01 3.366399302387281267e+01 5.769097236254927452e+01 8.642394401246210123e+01 9.825822080594268471e+01 9.556149307942439464e+01 1.659562801670325882e+02 2.737889627907031809e+02 2.535585521400628579e+02 1.733132971139864651e+02 1.355988593946132141e+02 1.003208390477547169e+02 5.586873287307179226e+01 3.968224621781051553e+01 4.087834188111771283e+01 4.350310137339508998e+01 3.774213585828308481e+01 1.881539058906275841e+01 9.243631544348666296e+00 1.703592520856251014e+00 1.609969743079079807e+00 2.370164620768148378e+00 7.589497615854298163e-01 3.312904630830170838e+00 1.469529776241792085e+01 1.937315446840614896e+01 1.404238873022039868e+01 1.643507566632650452e+01 2.795245703317412378e+01 3.093932510511344702e+01 4.489552539766844319e+01 8.349035573051061476e+01 5.192741853132528007e+01 1.459239925098931678e+01 4.344211874140136587e+01 2.254197477501309166e+01 2.990575176870978513e+00 4.791083260996406246e+00 1.083347584038012812e+01 1.520653807230934085e+01 1.696710032339316498e+01 1.454007209441283699e+01 2.689243844144431606e+01 2.900188770911415403e+01 3.029900789752174362e+01 5.172699838471493194e+01 9.525180640300359869e+01 9.106917272042117872e+01 8.741536268195977755e+01 5.012863172202569473e+01 3.878332988223648581e+00 2.233025386600282935e+00 1.696240449205208023e+01 4.302959390724939226e+01 8.000795260317312341e+01 1.027786700499889463e+02 1.071202983398736990e+02 1.222946628675823177e+02 1.416002834259075485e+02 1.333375322533771907e+02 1.214553572558628218e+02 1.127480307172216385e+02 1.009143446465235883e+02 1.064491186692258111e+02 1.157746236869149783e+02 1.045468231155037131e+02 1.003571787191731204e+02 1.109091389996822841e+02 1.219039105648907935e+02 1.031566224368661153e+02 6.956886584769239334e+01 4.927339310796190830e+01 2.320112825754681651e+01 1.550543012490584571e+00 1.415715230653407763e+00 5.913227066032838763e+00 1.217348437979243414e+01 1.673149873184387815e+01 1.592523032628363389e+01 1.601543910662854131e+01 2.170682111256653357e+01 1.384444216220318680e+01 5.678735913570815974e+00 9.836154941395720996e+00 1.582247264651974206e+01 1.114659526662582145e+01 3.571029487270224401e+00 3.885229649766635873e+00 4.011929704398752961e+00 2.971807770411513783e+00 3.098882073475769605e+00 6.017610212945340820e+00 6.991894692158895808e+00 2.909260570255593848e+03 1.719137881128742083e+04 6.211905188662561159e+03 1.010556491893102304e+01 5.996132095635666737e+00 1.369322496589275628e+00 1.770170993547193872e+00 6.790357153093949938e-01 2.246674203810540504e+00 2.686555225332905028e+00 1.857416284612108726e+00 4.052844487270616192e+00 5.546548889129092608e+00 6.964801204750516561e+00 5.581497571399218316e+00 4.165910386670907073e+00 3.642023304645415571e+00 2.329181063694138576e+00 2.037103100479860096e+00 3.706262189537940621e+00 5.569011982369565850e+00 8.152560818094487516e+00 9.903339872706098390e+00 8.352307549841768264e+00 6.458166636208496847e+00 5.940798784290547196e+00 5.469908180695948197e+00 1.899485063973350485e+00 3.875754886360335272e-01 5.724023414528249809e-01 7.530454416654637495e-02 6.240937299838816149e-02 4.557319519224031779e-01 1.028384694292668877e+00 4.274681813570728184e-01 3.061758602279048835e-01 1.082904248534007241e+00 1.674583670858041495e+00 1.132044999649964634e+00 4.120073622689139348e-01 2.338556862884499654e-01 3.336007840926744628e-01 6.434892788867017099e-01 4.703279201797208597e-01 7.259138349144244051e-01 1.855266388105706876e-01 1.957059957512337356e-02 3.323648423489408005e-02 1.795100612890731528e-01 3.077782234354362045e-01 3.866695661983732824e-01 1.520064894705843994e-01 2.106043003362903510e-01 2.711924252870633878e-01 4.169119347751019666e-01 1.015685265131651471e+00 9.010532002548066188e-01 1.180979985263669541e+00 9.083473692717090042e-01 4.364172889125423893e-01 3.978988095238661771e+01 2.397115858423853467e+02 9.719707457682392260e+01 6.904970635518811184e-01 3.722763736915435384e-01 7.082591760267584746e-01 7.476766433109247600e-01 1.386132170099453331e+00 7.568103698863355433e-01 3.498557228112344486e-01 5.145846726956747608e-01 1.930192208508794138e-01 5.004553633302077920e-02 1.085348199953853204e-01 1.899170137351190168e-01 5.231135981621052311e-01 5.229794557413721678e-01 3.834983959395505959e-01 4.794887265385515684e-01 5.049278182022686190e-01 3.930382477417518894e-01 3.371555442912032574e-01
1.575347400072253823e+00 3.547561035508643545e+00 2.135006033471935183e+00 1.047832157898652250e+00 1.530603026712036296e+00 1.102503135543281054e+00 3.483628460100811064e-01 9.398490320349345284e-01 8.871426997138441850e-01 1.050776307755312972e-01 3.615419348881518391e-02 1.317552507549456797e-01 9.826748182808718590e-02 5.539539898325317457e-01 1.398665796510292214e-01 2.711293176862817483e-02 5.631090017108381085e-01 9.626516050601788832e-01 2.848367456158653610e-01 8.494212671677513204e-02 1.256881385761147163e+00 3.088634456346145640e+00 3.787632847118946433e+00 1.272214543620341143e+00 6.831545964478472621e-01 2.876312807076412792e+00 3.924355624519422214e+00 2.170471363311042567e-01 5.923982110157636427e+00 4.791863600155417124e+00 6.612858895159426931e-01 2.836202122560142480e-01 4.220824704076130973e-01 4.677007064877257703e-01 2.658897738752545314e-01 5.628327776754559614e-02 4.525982450202464119e-02 7.439614770111715458e-01 3.051390720483622143e-01 3.751712643570695449e-02 8.057184272157183469e-02 2.375928190835531473e-02 5.993142564043092424e-01 1.717200279210619129e+00 2.230894530847364887e+00 1.303998539486039276e-01 6.568652967747220517e-01 2.520967749855050344e-01 1.019578643205479196e+00 1.807429001754057296e+00 1.411049474073627241e+00 5.540934836145406939e-01 3.609700202550481518e-01 7.645252363200422119e-01 1.132638076265831462e+00 1.191764358730759099e+01 3.772754033782690186e+01 1.090677507492043574e+01 3.902947017830564747e-01 1.176727580172639842e-01 8.136717754734477115e-01 2.535024592586929693e-01 4.376461787986091756e-01 9.232636453814174748e-02 2.508701678728052567e-02 6.539846530005755630e-03 6.550374875374470607e-02 3.855578017025424603e-02 2.269703309326190632e-01 5.421246821442197161e-01 2.714407088741134788e-01 1.728652506940769190e-02 1.862854099338669481e-02 4.538909793755863120e-02 1.184057055602429215e-01 9.661358926904384248e-02 4.185280508398871169e-03 1.374215191696612492e-01 3.369394004615129390e-01 8.867091056518258130e-01 3.580605341439024314e-01 9.194863176248228853e-02 5.913106007454401597e-02 3.473048260989423930e-02 8.887753618639596120e-03 1.350289766449832563e-01 3.889564270364114784e-01 3.492926375296632746e-01 6.236731378721084296e-01 4.654422822873638399e-01 5.314966669524398002e-01 5.052976012178544973e-01 4.839894166360260430e-02 5.860455819137413286e-02 4.340799218591141068e-02 9.931259222232773076e-02 3.069559105894336670e-01 4.111798471031122976e-02 9.225340977443509394e-02 6.768765802106445351e-02 3.230732823795681025e-02 1.709068169736480403e-01 2.032288167223187947e-01 2.158847635509519164e-02 3.586791354248732716e-02 2.770156618738318227e-02 2.073854576885583029e-02 8.736096361117762221e-02 1.747596762710741936e-01 6.078976838615526151e-02 1.135961387595692262e-01 1.938016615509725038e-01 3.811378954135963282e-01 4.337016446242082657e-02 4.608348361825147954e+00 2.235952951086826943e+03 1.339658723412852851e+04 4.893668102473468025e+03 8.685285527811100081e+00 7.722173194401837915e-01 2.607946265277317766e-01 1.947409101591298861e-02 2.933187797824832535e-02 8.364741607441555926e-02 2.321914633065314329e-02 1.553865842809936393e-01 1.805073015490506749e-01 1.057254638704682032e-01 1.544909688854415597e-01 1.828080614210148280e-01 2.311799676206748311e-01 7.106406764605083248e-02 1.000883654652116525e-02 9.476397751690786297e-02 5.402689992910338079e-02 1.437438984564856082e-01 2.831349180640806984e-01 1.277627747759648991e-01 5.753064537251403182e-02 2.805607676567407061e-01 2.564693632584710142e-02 5.561569225503632669e-02 1.044286020273499649e-01 1.255999160454197294e-01 1.605337253875873671e-01 1.033020548550087347e-01 1.557598185968868953e-01 2.579090264726051351e-02 6.229169345978394917e-03 3.021233164054340156e-02 5.908413485973395413e-02 3.158228948288765991e-02 1.471237607703887278e-02 1.398945899450207593e-02 8.316474755072056357e-02 1.911099726376783714e-01 8.081437605552006798e-02 3.089390468865734277e-02 1.071323380037588618e-01 8.015916281742845040e-02 5.469834507861845267e-03 2.021406004069931442e-02 1.586325177890140492e-01 1.486788414134121161e-01 1.533845442331606586e-02 9.392121858178274774e-03 6.010880358976262994e-02 1.333605753135851113e-01 7.822312567591641758e-03 1.457581878491478328e-02 2.197761183178957578e-02 3.379838392877843045e-02 3.138004221636672003e-02 1.661094119628627949e-02 9.347500104691177647e-01 2.644283718041004860e+01 2.300155600897236639e+02 1.033056719804654335e+02 6.629267806395374718e-01 1.549025277443488724e-02 3.022582178879945278e-02 5.175283966777699529e-02 4.982663890505154881e-03 6.104590489720888163e-02 8.785024292269269508e-02 2.037812304668512944e-02 4.903176689719284699e-03 4.409099548578487154e-02 8.791462371543351528e-02 1.060151440925873184e-01 5.313951702274407468e-02 1.101278890114758616e-02 3.246247968329467326e-02 5.184398637771382712e-02 2.693937331219026926e-02 7.924997494031610357e-02 6.949422146024171465e-02 1.674351814337607935e+00 3.313146397262720200e+00 2.738246255646791028e+00 1.338453939219560906e+00 1.147280829911632161e+00 7.789293331114260921e-01 1.057646284071598997e+00 1.902219463714356282e-02 2.796424478199940333e-01 5.811027925517504161e-02 6.098774251106434674e-01 6.655606973381875680e-01 5.544318374677125183e-01 2.695014925186164145e+00 6.823574819930033009e+00 1.000092403768711335e+01 6.453793327674980596e+00 9.243591084032805050e-01 1.876811446889682600e+00 1.708927660846890628e+00 7.419414400145429855e-01 1.015562591255619873e+00 1.697089207878271555e+00 6.344117893114366025e-01 2.131792425654873036e+00 5.458818653309083224e-01 2.583989591881532544e+00 1.329665279796608202e+00 9.955065256357974457e-01 6.983731349669755062e-01 1.088229227570428836e+00 1.116537662425203026e+00 7.470937254856374610e-01 1.266207997213206315e+00 1.017269639603734399e+00 1.559416813529280299e+00 4.146375752928045388e-01 1.774685773365253683e+00 1.853112060814894990e+00 7.704887051311917201e-01 1.887468284929709306e+00 4.498581653206156772e-01 1.695220527991836201e+00 3.905826241830245849e-01 1.065306643573774803e+00 2.795154015977455941e+00 2.808162685133415160e+00 1.032624292129559196e+00 1.042334558320249238e+00 5.784221628832498796e-01 5.731477574808192810e-02 1.202137017319365869e-01 1.068203528689556647e-01 1.509863038303946303e-01 3.115845164681371182e-01 8.115681568747497465e+00 3.993610282058786254e+01 1.132455263509636012e+01 7.635670464115822120e-02 6.129026443849356492e-02 6.326244810834565913e-01 2.161776416312514992e-01 1.940043339187685900e-01 3.592164879750196160e+00 4.978943434339169194e+00 1.272198132838350704e+00 1.594400041614637553e-01 2.537257821490875864e-01 9.884089558047729485e-01 6.531170462703991264e-01 9.909712440567637337e-01 1.280574995749789724e-01 2.499584930600560639e+00 3.508452017864834183e+00 1.183572540132450834e+00 2.028513316776090036e+00 3.753381355088317162e-01 1.178662688032210970e-01 1.183306301702065216e-01 4.583092553326961194e-01 6.275880893801828453e-01 8.754791245382465004e-02 5.195681312267667884e-02 1.105318368324465506e-01 7.701364337868260579e-01 4.111804951708063482e-01 1.078335025043426765e-01 5.499035635386493315e-01 2.738216571774879649e-01 7.240554841813919007e-02 2.064279705569955006e-02 5.635326421267796704e-01 7.748769563463643317e-01 2.016905706276365950e-01 4.998193813771042299e-02 7.330098782227842391e-02 7.033216421470060709e-02 3.932639837181505782e-01 6.584690194556154230e-01 2.002879866184813229e-02 3.583071246401000904e-03 2.238887000050907572e-01 3.871593824776788928e-01 1.165504844386893168e-01 1.568372464619160467e-01 3.326834254096590060e-01 2.343548820023808599e-01 9.601864806495594151e-02 3.295623218341600658e-01 3.092397279468243054e-01 9.799671870330141366e-02 4.027504583751239514e-02 2.237789782931461635e-01 1.613434600556246656e-01 6.341789119929168272e+00 2.888693321317878599e+03 1.737910825384738564e+04 6.393253782244154536e+03 1.525214215501772408e+01 5.704992783470470563e-01 2.614437002750574224e-01 1.809484326036895838e-02 1.426260640777886890e-01 2.985938937817029792e-01 1.652539464610103537e-01 1.176469496436051768e-02 6.323047537544521091e-02 1.071313108107796279e-02 3.449073073275563811e-02 1.767363874615799149e-02 7.673502599615573787e-03 6.544803330293820498e-02 1.929214745060839897e-01 2.135229256717032509e-01 2.225100934392626115e-02 3.392029974431511052e-02 1.656045228892966473e-02 8.777079881800512948e-03 8.181152120279854001e-02 1.067610187614323122e-02 1.197988859914347892e-01 4.363540465055165685e-02 7.527078980931502239e-02 1.451996528898554795e-01 6.018055314708255221e-02 1.111456983360645384e-01 3.812512078766433499e-01 2.011611790935823041e-02 1.139457040842669494e-01 5.837314096748084935e-02 5.368383417324050499e-02 6.303461283413182292e-02 1.505002152586173460e-02 3.266786936324834762e-03 8.925008784782853186e-03 2.538806858508559430e-02 1.445154823411114696e-02 7.569437819989291785e-03 2.856419598477222613e-02 1.012853102756659934e-01 2.744735343440374287e-02 2.728548887189426522e-02 8.191407545971771120e-02 5.950633086485065254e-02 1.289320603919675429e-02 1.386855372635862338e-01 3.502235399211736655e-02 9.740782855142347254e-04 3.484884080677396346e-03 4.680856462578831742e-03 5.460340967920136734e-02 7.376828100506753472e-02 8.227745017565522845e-02 1.332361939591685494e-02 9.927792718438206432e-01 2.662214401767055350e+01 2.316028808947515927e+02 1.025829473981822417e+02 4.215646910393380242e-01 9.051620512585786121e-03 5.551339077748418394e-02 6.093152907795446743e-02 3.508037942157352790e-02 3.063740873145023857e-02 5.270030913663708433e-02 2.203972503729926397e-02 3.755955906745384737e-02 2.063228933141422750e-02 3.416812516604969541e-02 6.573865015351657015e-02 3.312379964383967146e-02 5.740176673374469511e-03 2.436002864600485610e-02 6.052132823211545803e-02 2.283755424925612565e-02 1.217639245680833017e-02 8.696561917518079096e-03
5.260353505228251292e-01 1.862432248158637060e+00 1.421214958567779130e+00 5.430938289973405997e-01 3.129328057407756991e-01 3.787911234337087985e-01 7.861249925773642344e-01 8.947053791201926565e-01 4.414412208031279206e-01 3.731827390319683579e-02 1.622373871629185227e-01 6.943424062275857511e-02 2.213703546317322482e-02 1.436894896067963390e-01 1.068758442010067228e-01 6.284656355957582430e-03 1.090208663997695587e-01 5.362296049150772070e-02 4.145905751193663114e-01 1.067262456118292180e+00 1.817095391576045049e+00 1.960411121574837878e+00 8.962108433761895032e-01 2.298506195235449912e-01 8.833725374910474937e-01 1.456595167048695627e+00 2.215047756201910634e+00 1.370263494270610227e+00 6.856631087554552195e-01 1.061157885715314636e-01 4.291448239578918855e-01 6.813100086979759773e-01 3.397221545476180604e-01 3.296790798881340523e-01 1.920184623953010983e-01 2.404109340288922425e-01 4.878822777486126888e-02 9.871903166974724253e-02 1.244422266522439147e-01 4.268931698306824285e-02 6.907130461926604126e-02 1.880059432256236604e-02 1.086418373709326507e-01 2.722811293652641768e-02 2.968028563036695378e-01 3.585674311093713928e-01 1.343144486703742591e-01 2.760863717605340772e-01 1.204691547920431066e-01 2.080427332742279256e-01 7.773686940114800381e-02 6.669990577101199414e-02 2.879277112841699404e-02 5.316588964703305303e-02 2.373230475813392637e-01 4.460276217691322209e+00 3.260885708556096318e+01 1.336489024813218052e+01 8.679664600080996273e-01 2.175217986375436174e-01 4.205255569771848556e-01 5.646563600660152726e-01 1.749942997852535487e-02 3.756308236185531002e-01 3.868458166993128389e-01 3.235329423323785591e-01 4.671281447952732591e-01 6.953309855026951203e-01 4.499680203700668346e-01 1.929680829150230009e-02 2.824965951573082945e-01 3.267755814822552729e-01 1.291164916796098960e-01 1.912462260005020620e-01 2.497890099423104859e-01 1.594948605723939261e-01 1.361709881979333570e-01 2.118010162223135651e-01 1.387437734543280898e-01 6.344921750737124444e-02 6.576684044770367277e-02 7.065931744418364746e-02 1.269358645655188980e-02 1.992188014040625899e-01 1.067164925171525669e-01 3.350243669017415743e-02 2.879902665390127528e-02 3.988599038187129573e-04 5.654640817115053411e-03 5.012336073249407456e-03 2.645074774758961189e-02 8.174363556232397410e-02 2.199435630400878861e-01 9.571645956252071430e-02 1.672612809954500054e-02 1.427819855084261902e-01 6.474260238030003778e-02 1.782946168883859095e-01 3.885798210727179902e-01 4.692145910139140508e-01 1.437315518643896839e-01 8.396939555262753277e-03 2.486577590207770042e-02 1.027290115657363972e-01 1.243368857410152989e-01 1.100603775981854326e-01 1.315128327069961869e-02 7.021761432782490375e-02 3.323881016847164693e-02 5.753478998395147870e-02 7.096624997952270808e-02 6.478977923967241259e-02 1.032515016450788123e-02 6.048010718785717943e-01 3.720177596806400810e+00 2.233640425166092427e+03 1.325854917845127602e+04 4.762671803530940451e+03 8.611439178499733060e+00 1.043171765508374982e-01 5.543103182996126366e-01 2.778393176615446408e-02 1.526306104646392610e-02 4.090691739873270755e-02 2.989111251356414353e-02 1.100501890166806079e-01 8.423002911362652279e-02 3.177594260240336477e-02 1.596381020412168394e-01 1.911022753391017348e-01 1.271415165770706235e-01 8.017331561271294482e-02 1.191872824215995004e-02 4.628872445391718493e-02 1.123077258150775026e-01 5.235395897466597892e-02 1.415020451563771091e-02 1.254550033144185943e-02 9.613657255331954643e-02 7.190092232612650680e-02 1.020320371961183914e-01 7.569474252681332449e-02 5.206581119639454650e-03 1.319298761507461948e-01 2.770502169822183225e-01 3.113911178789502410e-01 5.714946547806381005e-01 1.048514535551386129e-01 9.693296741550919138e-02 2.086367333493368559e-01 5.039607839023699243e-02 2.154978414313750510e-03 7.834741941906946117e-02 1.027255643779952238e-01 1.757456211685773720e-02 2.980283908020803316e-03 8.852933092085317132e-03 5.965394028392093095e-02 4.142240718411722977e-02 6.328592230354068357e-03 1.810539730779860135e-02 5.484212573522545021e-03 1.454144681982375877e-02 8.718536113813617205e-03 1.907907229347652334e-02 3.167118593758213446e-02 8.794593806599356606e-03 7.878362362710838659e-03 7.128543646405032137e-03 2.009040049533509370e-03 2.858714826879507620e-03 7.112364881660117669e-03 1.186805851832793950e-03 1.359940217781061174e-02 1.133896621035206831e+00 2.408708263942935446e+01 2.551289608876059845e+02 1.204825146621758449e+02 5.369980459935144168e-01 1.361284517678233996e-01 1.265911538572478401e-02 1.538106952881251790e-03 2.679817927932867834e-03 3.816652297817597211e-02 2.284295576583143458e-02 4.674270179842236056e-02 7.600828960246254484e-02 5.835905686329456027e-02 2.723931033411010685e-03 9.157330585212238028e-03 2.334007284797346912e-02 1.699082955343448817e-02 1.614658823634987014e-02 5.986489113910690996e-03 1.455246423311623647e-04 1.002559298627390787e-02 1.273688055462835443e-02 2.403605337103552342e-01 1.175985509186537215e+00 1.297596461458461858e+00 7.649359656622258807e-01 4.256662716189696938e-01 8.845723050451163028e-01 4.100731280309750093e-01 5.875408949967487332e-02 1.509599460773353163e-01 1.094595794655098403e-01 8.360459457365437830e-01 1.283094505239197602e-01 1.767666183940848068e+00 2.964829846161537663e+00 2.861563194236380614e+00 2.340969831178559168e+00 1.350069464279087805e+00 5.221079996558336545e-01 5.116884934615631986e-01 3.702280196514921684e+00 3.036989657621372629e+00 3.353405038691522400e+00 9.682496847126527584e+00 4.922029861891762614e+00 2.851061100415523963e+00 5.234949567200650300e+00 4.487054192260142571e+00 6.356649257876594294e-01 7.732021501016328457e-02 2.775253951923337681e-01 3.763892341219339244e-01 1.106893133409200952e-01 2.287512145027467358e+00 1.973789954220209752e-01 1.484860268758246837e+00 1.048173353967732480e+00 2.041653590571737009e-01 6.611123775342211406e-01 2.571792343126452773e-01 2.526591719882826381e-01 4.148836342228997554e-01 1.239623910484587199e+00 1.088829495235039968e-01 3.397956775687464681e+00 1.988852602564967320e+00 1.400937269644226157e+00 1.836518878457211068e+00 2.525510228912674737e+00 2.044133397069937796e+00 1.325606600646818789e+00 9.641955412417199112e-01 8.991392545036439587e-01 6.659339516817470717e-01 6.757473651452858832e-01 1.052735092250423055e+00 3.125355620928136346e+00 3.433332622367240106e+01 1.543567036592852659e+01 1.940236900760673677e+00 1.146273776904172204e+00 5.961596318783713988e-01 1.168993444670183013e-01 2.506798567632007035e-02 8.140248741259274723e-02 4.472243345969904027e-01 4.906734978290241966e-01 1.856566380273043215e+00 9.296951439187047805e-01 9.362977668093755423e-02 1.279506520661711499e-01 2.371238678908469677e-01 5.374313672801059871e-01 3.549202220364576776e-01 2.366294307339238123e-01 1.236806178602864875e-01 6.104587015476760081e-01 4.562719107493610204e-01 2.773768672807406244e-01 9.566724036888543115e-01 7.179493880549264739e-01 2.662034842452343231e-01 9.580419302314628627e-02 2.067726330665900780e-01 1.557766882583809694e-02 2.727166005348994338e-01 2.873848610603814691e-01 9.574805772671637349e-01 8.892742086913650867e-01 6.954896458612890020e-02 1.396901600852247793e-01 1.669474914229964746e-01 7.496338284415374753e-01 6.546586596864892860e-01 4.219151009326881085e-02 5.697050666282831299e-01 6.754707112430530236e-01 6.573561313494519220e-01 3.729178328979383950e-01 2.288640826737807759e-03 1.884215444835091527e-02 8.656758243783095608e-02 1.009380321866695518e-01 2.699083865421391900e-04 4.800712076651720076e-03 1.293509102224265073e-01 3.521315067534850490e-02 1.983762859660604116e-01 5.522506418892257629e-02 2.943979322623880845e-01 1.307719805225440179e-01 5.601979727858659441e-02 5.450559307094219319e-01 2.377789132138734968e-02 3.183704979743651187e-01 7.132329366910018287e+00 2.885218841455703114e+03 1.719424026580151985e+04 6.208166384999526599e+03 1.024528234841179497e+01 9.838576385521149437e-01 8.677011647619925494e-02 8.861080449256990288e-02 4.376280337125174058e-01 2.381703793666878621e-01 1.790619473484492130e-01 5.227928464798138608e-02 5.551031461011817630e-02 7.053527199148916516e-02 3.266926101251563935e-02 1.176885615837885632e-02 1.452185218461277127e-02 4.050763872644107255e-02 3.448416524108431636e-02 5.120186215244138146e-03 4.804211621952227812e-02 8.469342081343850248e-02 5.599487921736941848e-02 8.886947147639980005e-02 1.996014299422954955e-02 5.376283342977803553e-02 2.407336326491727949e-02 9.439788660360183548e-02 2.276980944925157888e-02 1.799197739941233581e-02 1.312388691058234171e-02 1.557436247078396729e-01 1.451230715403636906e-01 8.946525741390236319e-02 1.867780652293361265e-01 1.568282116512481894e-01 4.810814161448034171e-02 3.036912180862402083e-02 9.983163632810281365e-03 4.214704612661948624e-02 3.510185182379814417e-02 1.078883974920972350e-02 4.494700832019035827e-04 4.793929337475356413e-03 5.070246259855473725e-02 2.282705057552003244e-02 7.802108777681815086e-03 2.719740626285630132e-03 4.070815949537980559e-03 1.524363310166914481e-02 4.270969207304428292e-03 3.329242873044501545e-04 3.271632629132498887e-02 1.246047739795620585e-01 8.047063083815492179e-02 1.739286625020635205e-02 1.615638852463598465e-02 6.233755932528191497e-03 8.466625108396597446e-03 1.772863981031772701e-02 1.420591583421660253e+00 2.397794449744051093e+01 2.501955719400009173e+02 1.204192306381117703e+02 1.013454832091537305e+00 1.514026523450505944e-02 1.169579099858422504e-02 2.203903154570102663e-02 4.727653984992936237e-02 2.990881877910663705e-02 1.037646721952804191e-02 3.833589729071169849e-02 6.537816395226921096e-02 5.870511234454050403e-02 2.362519685674994985e-02 1.349943553833122579e-04 8.466387388629001073e-03 1.502204637486006557e-02 8.205250994414062249e-03 1.970418803844260509e-03 4.760561072907543677e-03 2.162343066873386593e-02 1.598537830289368730e-02
6.201832941160880797e-01 9.670634721774926112e-02 2.241602089496274264e+00 1.899770857396805290e+00 1.248772455959968219e+00 5.416602943568011863e-01 4.244715291376677802e-01 1.610925175043573798e-01 4.681070730078147890e-01 1.533981492875120978e+00 1.629620021953482212e+00 1.427392010563298008e+00 6.567799545169881181e-01 1.501068885499911576e-01 5.251294724822653803e-01 2.831273918073042295e-01 3.833157094649005114e-01 1.218060885658632242e-01 2.235496055065081533e-01 8.501725682742407031e-01 2.385900226473541608e+00 3.032677016204397002e+00 3.768434963880888389e-01 3.609032149890671337e-01 1.174045630594086287e+00 1.889771720349760598e+00 1.318924561598719958e+00 9.108946389357189255e-02 6.098332151411202731e-03 4.073122770108903584e-02 3.292345987807528823e-02 1.116146382051168007e-01 1.517908287855850580e-01 2.100317074101107177e-03 7.800104417582547078e-02 4.505129807379397167e-01 3.628627806034419034e-01 9.464117043756750669e-02 1.085082396361614743e+00 3.318702533741435534e-01 4.245047428437150744e-02 1.786160520544809449e-01 1.246630154961757275e-01 2.017605492706610326e-01 6.073935416097677592e-02 3.749584619439746414e-01 1.328431445004497835e+00 6.584725192398772631e-01 1.494000369104449555e-01 9.349803089879427098e-03 5.236506695309225273e-02 2.693154873403416638e-01 8.293110152569042881e-02 1.918011861149099551e-01 4.355070326391715652e-01 5.756351727551265451e-01 4.393785044199740142e+00 1.598867161146184213e+00 8.402660125226642240e-02 3.215724056933051966e-01 1.390766178121198182e+00 6.747765823107638727e-01 1.238825318262083697e-01 9.491985364339476650e-02 1.481395482404098962e-01 7.018564648501314854e-03 3.849755676312961034e-02 3.819796759324626811e-01 3.076420922624380494e-01 1.108247692987128080e-01 8.791212388954755541e-02 1.883831923070572456e-01 3.268595607337643760e-01 5.943281212734589092e-01 8.807734103375705059e-01 3.828455665729491586e-01 3.199216136641985786e-01 7.537230482469222670e-01 4.761058154041213908e-01 3.091717078700356169e-01 3.447075845259763849e-01 4.606227770577723812e-01 2.469985860180222426e-01 1.735076854207840205e-02 1.664693759206340995e-01 3.356646195449848324e-01 1.851679434775165556e-01 8.307039661119819049e-03 6.491328357758852086e-02 4.527507836060171154e-02 5.585627359024006831e-03 4.812785250342169197e-02 3.366636875425421671e-01 4.347172406471163097e-01 3.171149493973344224e-01 3.088900511466929899e-01 1.217745562231884321e-01 3.473243882839618935e-01 1.332387357854482590e-01 7.613773300754922424e-02 5.701179544289653942e-03 9.770443498144636141e-02 3.051682676764165270e-01 4.692096352463492326e-01 2.486517556593690337e-01 9.181374226056721044e-02 9.712886272871401605e-02 1.176217288000770966e-01 3.108645010349581628e-01 2.201694678992202614e-01 6.062157322981349961e-02 4.281583521246800500e-02 8.219981444403540172e-02 1.836668030552160435e-01 3.149680613800321383e-01 2.926467881429759927e+03 1.354934304426715971e+04 3.950909868667886713e+03 1.435513204972249213e+00 2.350811125350399378e-02 1.221487573178314939e-01 9.722436059410050069e-02 8.783420489970225620e-02 1.073417288339395721e-05 2.738396750606484492e-02 4.608470623012947409e-02 2.827749432098180735e-02 1.511027547082081229e-02 1.270979874563759049e-01 1.850483348699326347e-01 1.257123090048559433e-01 2.411816359441501870e-02 1.701539637234119884e-01 2.911797423329301471e-02 2.762163325481171994e-02 2.985212916757440729e-02 1.951589050983528265e-02 2.798621419894352022e-02 1.671138187269107303e-02 5.056081024003960742e-03 7.560965246916130644e-02 7.747778311830726128e-02 1.446721864474574855e-02 7.043859920909163741e-02 2.472815022070281588e-01 1.513407927614722481e-01 6.807304135880630491e-02 7.773577744904399713e-03 6.469785707712212564e-02 1.656489087243669112e-01 2.228956706928300266e-02 8.530384633199293576e-02 1.472540556091257447e-01 2.142311126422596912e-02 2.003324626568058625e-02 5.571833825011556635e-02 2.061791781550556882e-02 6.238800128265996336e-02 1.874743387042921913e-02 5.674346729165419267e-03 3.247987957977743062e-02 3.383852966649075061e-02 1.029561678199633484e-01 1.262286386231832591e-01 2.430902276034016887e-02 5.433985844408807664e-02 1.688786400822289008e-02 1.181231665718527864e-03 1.263603974883809565e-02 8.140320975992448860e-02 3.231031799496204837e-02 3.543994758479040389e-03 5.218668179504612481e-02 3.806830809025182330e-04 1.925548139877713838e-01 4.055111041530112459e+01 2.492193697094640186e+02 8.509036784200361581e+01 1.479327118009018116e-01 2.142744075547065724e-02 2.553774277976674639e-02 2.018063036377868921e-02 4.494745516270712456e-03 4.524484839464650021e-02 3.086535591395950934e-02 7.542023723909784677e-03 3.254256722614344566e-02 2.992480732423687118e-02 5.360911848326197805e-03 1.224320837674696370e-02 3.400975603914671574e-02 4.335360380363770944e-02 1.210689585054323253e-02 5.723865575240701283e-03 4.215348876594025851e-02 2.108091480021946629e-02 5.360564259021293083e-03 1.155453567559202033e-01 5.005203035686656837e-02 6.516639054208250847e-01 3.501289218491521749e-01 1.573288309283361608e-01 6.135948542519960303e-02 1.029058199880392294e-01 1.596744937204218340e-01 2.291752991058543520e-01 1.156629185857872000e-01 1.217582804587701573e-01 2.210317982417814298e-01 5.475124968420666538e-02 4.982489871808729598e-01 4.045391961269112491e-01 9.926419928551784636e-03 7.310051476591891695e-02 2.321991226517788887e-01 9.415501670438131132e-01 3.110842386846948693e-01 4.528688894499813961e-02 3.122699791239028633e-01 3.069880510778137950e+00 6.197849266933487478e+00 5.689396340874284697e+00 7.151726592819913186e+00 1.264120526948731715e+01 3.700121776527968365e+00 2.050343968718267629e+00 8.478288524671450332e+00 3.062735660014053174e+00 6.221080317125929682e+00 6.229994496229736001e+00 1.672564672157286880e+00 1.614689396788879239e-01 1.551649856737303157e+00 7.174476064417918408e-01 1.364200912795333620e-01 5.146500790885083498e-01 1.412180803124265804e-01 3.932883981957248642e-01 1.836917012497940815e+00 2.775402817375590914e+00 3.905052930929771460e+00 2.135288254620168136e+00 4.991884568865583016e-02 7.770656357176868034e-02 1.421997117946953271e+00 1.244379691298794333e+00 4.198521090615052742e-01 8.467808163035539515e-01 2.347279768998320915e+00 4.471102359666261350e-01 7.087729258481274552e-01 3.806341620948542892e-01 1.221747559811061423e+00 4.467122243776242563e+00 5.367454215802631712e-01 1.877177378372918426e-01 5.634286243459322163e-01 1.450862457231986813e+00 9.201959634805674249e-01 4.254923770214296574e+00 1.171483443455251461e+00 2.729800738933412796e-01 5.694541705381466201e-01 1.133769879229682004e-01 1.379648174185155174e+00 2.029663381049807036e+00 4.817296129659591197e-01 3.574667678990890440e-01 2.633031228154811831e-01 1.089401311350109092e+00 2.279671725013657113e+00 3.335628347547860084e+00 2.087386065842107730e+00 4.103260935224951611e-01 3.484866104090190153e-01 5.818154184567799758e-01 7.456731382687840082e-01 1.118556568121065534e-02 4.284731825837093111e-01 2.340678223054266371e-01 2.227283438064394938e-01 1.116206054651650570e+00 4.101725481442357046e-01 4.901807775955310253e-01 3.069504939404900101e-01 5.247198504428689514e-01 1.382938375824268595e+00 1.043925992243453921e-01 5.279053482180845469e-02 7.133352553074183700e-01 1.425085227338321214e+00 7.943151278710422480e-02 1.695230875748972021e-01 3.083334548039774470e-01 5.239875620009578627e-01 1.613872078081685646e-01 4.861345171512965885e-02 1.817371318473378072e-01 5.268356287743873601e-02 4.178693368139988623e-02 1.175629598619249427e-01 1.196488934451522546e-01 3.799736381950613584e-02 1.165240040933976373e-02 2.106783793828162499e-02 2.038505492916639628e-01 9.266793754398598704e-02 4.088655643000112250e-02 1.699100128650172514e-01 1.796036759159136964e-01 8.683441957668796007e-01 6.380636753656004911e-02 3.812945746571757809e+03 1.751576605652901344e+04 5.104888210385937782e+03 1.784165520930114379e+00 4.620874208117481396e-01 4.432854084154131541e-03 1.107926027746322095e-01 6.412779442297791843e-02 1.084363967896135594e-01 2.580452018719220364e-01 1.355773275937411648e-01 6.160321583918121346e-02 1.559714980766261083e-01 1.584268375348596158e-01 1.968721808586813282e-01 2.066524304872604523e-01 2.418995884970412055e-02 3.365187767383748946e-02 1.091123471634707076e-02 3.840361221909782685e-03 7.981215021243494648e-03 2.831537747350477280e-02 7.103242910785505237e-02 7.670704109853060393e-02 7.442604693718095354e-02 6.861094378770694890e-02 3.815084201981531337e-02 1.829343550550399933e-01 3.735458889622941259e-01 1.322154934526422743e-01 2.735202203228060194e-02 1.034893159162673330e-04 1.672490366053835942e-01 2.217436047671460797e-01 1.837932906964322849e-02 5.798285171669000787e-02 4.946127447158408380e-02 1.421057599286761584e-02 1.021664053348325801e-01 1.151818761171682047e-02 1.448219363314255104e-01 1.898180478108418001e-01 9.572329824763307904e-02 3.624743408101514103e-02 1.159063924530760459e-01 1.299816178759882757e-01 1.151308083656693709e-01 2.241586563285810976e-02 2.102727032180162769e-02 6.999694203075486343e-02 9.780530284052342538e-02 2.864733697169439403e-02 2.002061460571927937e-02 3.511341121629422274e-02 1.133730581494804546e-01 1.522212374141404014e-02 9.594309041729617024e-04 8.170730194830679027e-02 6.071571726677536113e-02 8.228800150239866384e-02 4.413649620686951636e+01 2.471631465326524335e+02 8.120145100024774365e+01 3.933329883716454867e-02 1.762580880668461122e-02 1.715422917669168906e-02 1.143077830405892989e-02 2.212006213951566401e-03 5.192009411063611135e-02 3.472106098691486037e-02 1.614619969042166469e-03 1.390009829697921688e-02 5.553103271061018455e-03 4.712339801512015897e-03 2.345117014334260550e-02 8.869332664767477781e-03 1.951538081302723563e-04 3.696079832270490056e-02 8.718348797716594933e-02 4.790363793455006819e-02 6.941988887223015173e-04 9.770103434423055289e-03
6.369512164852292324e-01 5.899466182866768271e-01 4.862257280935504689e-01 1.610817099287059628e+00 1.810186094762205045e+00 1.951647301470692986e+00 2.042029167227118747e-01 1.829005791942775808e-02 3.598377198868521476e-01 6.191523923685474662e-01 3.605279220451677175e-02 5.973303190582150979e-01 1.194557807357449430e+00 4.188605564414898397e-01 4.186862077905339485e-01 3.282826603581697200e-01 6.181950115295243853e-01 6.307868069781736864e-01 5.790695458658572797e-02 5.959854469878711480e-01 1.900312822767325160e+00 1.115005368461034374e+00 3.677869916424410524e-01 7.560472174111482202e-02 2.998174785923925501e-01 1.364140226122934285e+00 3.307090214735498801e+00 1.315607600783136322e+00 8.727932416874344401e-01 1.089137268024662930e+00 1.423268428286232234e+00 3.602134726031162582e-01 2.600329544358058187e-01 2.134506615166829879e-02 5.330724344303825468e-01 4.720419148568117951e-01 1.669223223694582259e-01 2.555793161220209497e-01 3.179211532432938969e-01 7.569883498038837422e-02 3.152319214214110432e-01 5.575294657817335686e-01 1.604430486444861914e-01 3.047002799665260997e-01 2.907338143812212006e-01 1.049372929432008158e-03 5.958601295893356520e-01 3.211984961033496067e-01 8.307311146693219239e-02 8.923599920725046319e-02 1.346202245917500068e-02 3.011410586200938821e-01 1.026435771914963935e+00 9.452431149507973807e-01 5.950142949779601009e-01 6.877917662538777233e-01 6.754739508889164412e+00 1.915055140586322313e+00 1.391305004167125436e-01 6.969947389281209160e-01 1.328204909698673886e+00 1.006658279363455755e+00 6.440601110100249715e-02 2.884402533116442804e-02 7.025552248066253835e-02 1.180542357778009144e-01 2.506014463606870968e-01 2.018797857100473603e-01 9.707553469104994448e-02 7.957693553917953577e-02 2.108825598756677161e-02 3.334941843177888915e-02 1.180456357553302943e-01 2.773406423294865197e-01 1.364934658800998901e-01 2.483973432726762631e-01 1.116302202747948419e-01 5.722848277209844486e-02 1.484869108945013616e-01 1.047707805818158949e-01 7.559214238430106252e-03 1.447662173001551013e-02 2.677665463556366809e-02 7.484135689849437389e-02 1.482390036377646304e-02 4.121016741291618629e-02 2.466216845678242675e-01 1.528082077915794978e-01 4.289947808556489328e-02 6.391224069053914880e-02 2.544092469560358394e-01 3.755172864185626902e-01 8.082340701056402177e-02 8.037623805836008328e-02 7.980193946951451289e-03 1.053457328677969984e-01 4.202003608877648982e-02 1.526546945412715905e-01 2.717492821783522028e-01 1.257621340756203410e-01 2.083697289328520497e-01 4.220501694365039885e-02 6.691992631951940163e-02 1.453471625486012497e-01 2.288276850250309941e-02 5.094402434055930046e-02 4.253034695030841195e-02 1.677646577467215364e-02 7.772465205354521685e-03 4.108285895969069484e-02 1.392577860338310887e-02 1.249772798034577553e-01 3.654240014810343218e-01 4.742605460878001056e-01 1.974288164419057967e+00 2.756578100793420163e+03 1.348744964573563448e+04 4.095326236818806592e+03 2.202638522383324471e+00 1.928041275084131645e-01 1.372221077118278634e-02 4.415587753544950728e-02 1.518209067879675300e-01 1.567064799908747252e-01 5.882901160477947700e-02 3.363100814763554658e-02 2.866378802924416020e-04 1.563405577993382889e-03 1.934142962201163343e-02 2.615552416660457680e-02 1.009440112907104281e-01 1.779028112922466098e-01 1.137736588466784909e-01 5.154170926684448206e-02 1.358712856636117884e-02 6.811371943801687937e-03 9.802181629569507726e-02 1.060354223053781714e-01 1.133440208780168469e-02 2.273930708876693851e-03 2.833119696536833682e-02 2.195683185242381166e-02 5.191173799867776495e-04 9.681731820411902320e-03 6.309352441137913367e-03 3.252352958597242577e-02 7.184746046745023318e-02 5.848227821111387503e-02 4.910698959871652230e-04 2.111020340848675930e-02 2.600535753316636500e-02 3.557725661742804080e-02 2.440861985750739788e-02 1.063079741535129762e-02 1.058807583995262647e-01 3.837218296899046199e-02 6.818785721761547181e-03 1.760503095756089931e-02 5.391326410267828495e-02 9.790401802452915192e-02 8.165992288893685058e-02 4.469888153879764819e-02 2.066457402806602672e-02 2.127798305128423065e-02 2.372149635444359070e-02 2.577815439769162373e-02 1.359995794982516229e-02 1.194531578921204096e-02 5.819596376284776745e-02 1.101013203784833444e-01 1.232308770297899092e-01 6.055315255955068948e-02 1.859874619762383607e-01 1.086565595894250918e-01 7.097478639477876328e-02 6.640447627413128373e+01 2.999571581658759669e+02 9.370647475869765231e+01 3.123784292845752653e-01 1.239504283336781004e-01 2.799299699817845433e-01 5.859953838621045907e-02 4.811757488341213140e-02 8.400355314050972355e-02 2.210952739927915522e-02 4.726584111387175519e-02 1.299972644360070269e-02 5.206626730547778310e-03 5.868529008192740690e-03 1.497612725642329806e-03 1.446734948148181883e-02 2.287740457623023763e-02 2.037959868152069628e-02 6.548453496879551479e-03 3.381440641295180684e-04 2.305589945132781749e-03 1.055932255791965611e-03 1.091534866012445981e+00 1.548455733021106839e+00 4.691910414211706848e-01 4.922670734427486705e-01 9.004695240784992283e-01 7.073805464470348525e-01 4.037423941145223266e-02 5.303157977996995204e-02 1.486835454614290897e-01 4.665578864241662349e-02 3.993070792464580715e-02 9.522725100925642783e-02 4.661758346877271642e-01 5.555602930712656429e-01 6.206073874716539970e-03 1.062581152553916664e-01 9.000032683242675802e-02 1.074040803106691144e-01 1.023067691867389495e-01 1.831246875116030459e-01 9.206129217733594050e-01 1.494743497324982906e-01 7.190429387732520716e+00 8.971269056594293190e+00 1.583951786755519509e+00 2.735526106935934898e+00 1.339966494223377103e+00 1.418255543931771667e+00 4.982274213538159913e+00 5.108872066479426266e+00 3.771769589916645682e+00 2.319309427533405632e+00 2.754700514704828240e+00 6.522614991277416729e-01 1.459070067363814061e-01 2.594114544023172986e+00 2.690403523763861493e+00 1.564456139811345237e+00 7.444975667411229958e-01 3.061711062097846603e-01 6.559026565246967033e-01 1.977497678799997605e+00 2.403260172084657142e+00 9.373760749737291009e-01 4.913896737999617237e+00 1.456581708331809555e+00 7.618429602429321879e-02 1.217162693291660158e-01 1.026064900559532145e+00 5.245637294119296357e+00 3.468095562556388067e+00 7.400446807326085397e-01 3.511146088805124355e-01 1.564551981419607385e-01 8.207463231110856405e-01 7.262662792566956238e-01 6.876712927498108918e+00 2.302876757952462494e+00 1.357044881148147530e-01 2.535882440849409836e+00 2.947175205473369086e+00 2.034052001919048447e+00 1.713696115153055255e-01 6.401569578060088972e-01 1.612537306444767823e-02 3.410079389009737505e-01 1.418150339722480835e+00 1.525869433222305949e+00 9.254273085142330491e-01 6.731521801136670924e-02 1.422704527559071064e+00 4.753528891065460504e-01 1.601382958015106661e+00 7.485993720450589972e-01 5.348113769436116938e-01 9.113714401241753693e-01 1.215523716183392056e+00 1.439685670992693955e+00 7.795144884624297665e-01 1.589736760416533334e+00 9.233878046666105233e-01 1.636748316938343439e+00 2.259409133868008457e+00 1.482345604300376873e+00 5.567475989689902871e-01 7.695176165081665798e-02 2.127935138666783577e-01 4.546518399902201857e-01 6.220530435680593495e-01 5.072875756516302959e-01 6.065947105468673106e-01 5.376491207084507229e-01 1.073428943616593773e-01 6.276645495849756395e-01 1.381012958538566426e+00 5.164996730846791451e-01 1.775066854528980012e-02 5.613025689794220313e-02 1.992684442025009078e-02 1.256961619453311196e-01 2.169934761855495803e-02 2.566929413476684019e-01 2.269239747665477980e-01 6.224636833184422902e-02 2.371261262048399154e-02 1.958748057909540791e-02 7.247121234325994144e-02 6.600583044166059843e-02 6.685888393040802236e-02 1.635800801925680337e-01 1.478653883864142378e-02 7.013922747064803807e-03 3.958002506753001415e-02 1.928113299764593613e-01 2.230187938803623204e+00 3.568828998087567015e+03 1.748018977353251466e+04 5.291399141047779267e+03 2.962221613495730210e+00 7.191162290454934658e-02 5.771057832103142216e-02 1.461754834162076466e-01 2.320398324102501686e-01 5.290252482619373087e-01 4.096166136614994846e-01 7.581587059086127012e-02 1.507590786183879428e-01 3.308168795795767281e-01 2.648527380896808503e-01 1.011140538266359773e-01 1.510541861438683409e-01 2.812306349873880951e-01 1.763982467990500291e-01 3.640362586878469892e-02 5.085382455703587115e-03 1.123254521579071380e-01 2.948174109566887857e-01 1.112749881600805651e-01 7.011966283850434856e-02 4.575715220971103558e-02 1.441576562270854567e-01 2.006353211544376347e-01 8.701553910337010700e-02 3.751926614919738612e-02 7.725187856926067631e-02 4.434710347850552570e-02 2.477753561010269390e-02 1.015520532438938736e-02 8.202984647459438464e-03 7.033272923844368328e-03 4.341480828713118606e-02 1.198089588795144406e-01 5.159863666855208503e-02 9.906576279260581944e-04 1.106667557262274240e-02 9.386996907152448527e-03 7.398100358301770750e-05 4.097076269886524430e-02 5.296085848597770207e-02 2.828773038947436369e-01 2.008813043645422125e-01 2.423011288382657946e-02 4.779217539003459414e-02 6.385747133174828061e-02 5.751690093597843292e-03 5.068674778383823985e-03 2.596249409268911942e-02 2.577439630814132646e-02 9.317560395118169858e-02 1.339470363724848123e-01 1.534412062991591108e-01 1.445114967344637291e-01 1.985255961955569859e-01 2.796131441444252852e-01 3.025147785624336394e-01 7.064638332774869411e+01 2.970632887060858707e+02 8.994283037953611881e+01 3.293397486929862117e-01 2.614891217510797450e-01 3.630891810318237489e-01 6.114576067292566003e-02 3.597972881555419611e-02 1.116922131995146394e-01 4.997293148674591956e-02 5.169611712865183895e-02 1.922332601861546572e-02 1.029060065231987217e-02 1.188558656030811768e-02 1.901929957923026394e-03 1.617135579750986554e-02 3.671511720499773257e-02 1.120019600153997381e-02 5.984383697131670336e-03 2.853882227067940699e-03 4.610158250250403350e-03 4.045033352023585591e-03
2.452889325277287369e-01 6.915780388899975817e-01 9.344943524582247640e-01 4.717694705764833851e-01 9.156742506748780652e-01 1.350866645117891673e+00 8.945976420121422024e-01 4.322302254572779612e-02 1.347255058165907959e+00 8.005276127216840454e-01 1.128586877217960666e-01 4.089202714511658843e-01 5.382625187554638257e-01 8.489800887323390999e-01 6.144059703925581761e-01 4.696096002815177139e-01 6.522743763886992840e-02 1.284842107677681033e+00 9.723192834907445903e-01 4.758458520690955068e-02 2.274018470836621994e-02 1.628563942731365566e-01 8.972800597724842619e-01 1.248481963712801068e+00 1.604646420306179988e-02 1.785621913604438227e+00 3.421028667544985247e+00 8.514677695796014634e-01 4.458620775397319491e-01 4.198696585726147124e-01 3.560753757854629442e-01 1.061893666710749695e+00 1.097269085104886965e+00 2.550027556913415649e-01 1.522045239904605829e-01 4.862891619693576750e-01 8.096852341814185505e-02 2.167684845448771824e-01 2.925955373489664835e-01 1.421873031556090683e-01 1.813701987668161694e-02 6.124095968369923648e-01 1.010471146938515252e+00 3.157803743607608127e-02 2.018772199257411470e-01 8.234651006157607256e-01 9.091264796303828444e-01 1.729196221659012531e-02 1.899803106188316937e-01 2.007077909326040466e-01 1.397523901658359879e-01 3.741647323032563643e-01 3.498497673186616863e-01 2.744691808211478512e-01 1.743597968356980499e-01 1.310210822130404296e+00 7.352753250627612758e+00 2.201653040023074492e+00 3.800113354248668696e-02 2.291072366685720230e-01 7.894282276962308331e-02 6.980099595950660374e-02 4.523386244415634333e-02 5.176011246666129689e-02 1.924071452683440986e-01 1.052785460873776058e-01 6.358288881020825178e-02 2.935299280434527369e-01 5.471801870256269851e-01 6.210453688473159817e-01 7.588352898212405995e-01 1.331953309065607494e+00 6.391384393746828430e-01 2.276458172988515827e-01 6.957757802374765765e-02 4.223306961075063565e-02 6.201015981909607788e-02 1.364438381155564928e-01 6.447418459986573591e-01 2.508154984705130985e-01 8.512243675976052804e-02 2.425926273976522773e-01 2.073836667781744081e-01 3.340530795750065729e-02 1.457542814955430921e-01 7.104259044712689652e-01 1.291671678714771287e+00 5.671136928706708158e-01 2.129964897202381857e-01 2.939038103365382293e-01 3.328063783669223119e-02 1.231207451687238025e-01 1.816314914077041542e-01 1.377553251346130651e-02 4.773927172059889978e-02 1.813773584782925330e-01 1.136903590504906164e-01 1.021047629829306413e-01 2.202293180309639400e-02 4.520193529094074236e-02 4.914857540961820384e-03 8.955859283383149627e-02 4.191259692158697675e-02 5.483769264599945570e-02 3.389015754499473398e-02 6.328587789365078264e-02 2.388200440102293542e-01 7.774872019745031337e-02 4.575572284368409869e-03 2.420408733656622888e-02 3.212848228485765123e-02 2.085485267952129351e-02 1.391267267494775313e-02 2.796244659787875397e-01 1.464775625913002699e+00 2.739804785455921774e+03 1.351847181708768585e+04 4.101505515890083188e+03 1.419283453655703520e+00 2.320136651188385302e-01 1.503940732663410496e-01 1.410804306887830650e-01 7.025237317612348029e-03 7.284745685356416867e-02 4.758567946504337065e-02 1.101262847908355234e-02 2.513010466010294139e-02 3.105782506972075072e-03 2.238417198453981211e-02 5.111996679739058171e-03 4.782288550849755210e-02 4.894247876494815103e-02 3.190943332740369016e-03 3.296377215445400743e-02 4.794313445341371119e-03 1.508676032030645819e-01 5.322208687687728090e-02 6.007457794931673339e-02 1.611001839122647994e-01 3.366042431034265564e-02 8.409109001953964666e-04 4.645603404755025562e-02 1.278750303736589655e-01 1.637915383503853461e-01 1.245028912671485577e-01 7.617379699431672813e-02 1.320075176415413942e-01 7.062800721670561832e-02 3.031909354534843143e-02 3.600103063542955256e-02 1.669226003016995724e-02 4.773077372516888045e-02 2.830529258402262119e-02 6.893130508562689274e-02 1.159748425056118942e-01 5.112283919382261746e-03 8.761153332920826320e-02 4.508910666421798302e-02 1.739773615380499697e-02 1.299906467297416452e-03 2.840277640855545793e-02 2.226496829959847754e-02 2.573149652082145494e-02 1.992824102354883060e-03 7.287157339588036520e-02 1.049293361276075753e-01 1.894218067144519402e-02 1.148870344991896747e-01 3.441352918561304541e-01 1.990473684712855684e-01 7.239559948489301955e-02 1.321377785624466838e-01 1.633302829143126189e-01 9.981205067443350842e-02 1.289816863593075402e-01 5.306146666983701721e+01 2.639544646596275470e+02 8.642792147188441731e+01 9.736044864977491664e-02 2.142486503000752551e-02 5.315922194211269948e-04 2.789005825047165352e-03 2.951317216027070540e-03 4.560586810851721858e-03 9.429660712639622092e-03 6.519576389239559178e-02 4.761636440154431993e-02 2.126760084005492255e-02 6.172107141185762327e-03 2.361922061745973592e-02 3.288113885963173111e-02 8.146412863288893941e-03 2.066756937127282520e-02 5.409239401329148794e-02 3.374336908531768570e-02 2.832757592083639045e-02 1.754001907672899513e-02 7.307996625930360257e-02 3.467301867422206141e-01 3.939950329772313742e-01 4.781602994944745832e-01 9.002478493802688053e-01 4.066470827026815726e-01 6.422229906738369243e-02 1.707985136757730615e-01 3.424840858659524701e-01 4.488165352093709815e-01 7.404886631743329284e-02 1.092090859043360757e-01 2.826642130438459799e-01 1.662279116971980553e-01 1.878610105702711308e-01 2.317076269821256584e-01 2.570104577886102581e-01 1.077049640021771726e+00 1.214229306427327293e+00 4.254639603377484147e-01 9.749949922275443770e-01 1.353922968468597166e-01 1.460595371128051934e+00 2.583504319234972701e+00 4.217816035332905833e-01 2.198384157865225674e+00 3.519679156272891962e+00 7.882603214304138017e-01 2.202339403212679958e+00 5.091168825622809813e+00 2.674326318676662151e+00 3.902336179190531995e-01 1.409417850637971314e+00 9.488216289738691245e-01 2.635638697118991569e+00 7.186908528949496500e+00 5.016125753335018089e+00 1.023322786293020314e+00 2.261244757239357916e+00 2.151544147696863085e+00 1.750204799228556762e+00 3.298783116991401698e+00 8.713570712046005085e+00 1.288704687355365364e+00 1.346666963842036768e+00 1.901674535905259811e+00 1.595284738889120257e+00 2.371545465499725891e-01 2.421507854381176550e+00 1.754963313049609175e+00 5.232101622258012591e-02 9.454525026611678706e-01 5.459578842810712818e-01 8.338937775268943919e-02 1.030918513150707039e-01 1.259139820820775135e+00 6.962659189582144137e+00 1.799007751108297581e+00 1.721767877380086409e+00 2.749688009818390011e+00 2.988343018808005347e+00 2.899930446730129674e+00 4.237772739748420225e-02 9.167778282589784666e-01 2.461251403011587013e-01 2.079294697229787658e+00 1.047049312395221810e+00 1.143102867073742201e+00 2.217705743876969393e+00 1.165927341129052719e+00 1.944154378371672487e-01 1.477279570124846897e+00 5.110936508728654015e-01 8.918461353207599585e-01 1.723187833419403958e+00 5.855400426381240919e+00 3.109608510214633803e+00 4.883956089237613263e-01 9.318441709732911971e-01 2.265407450720507976e-01 1.364240910782023697e+00 1.311600983873796977e+00 5.282649048766944189e-01 1.017379749744646567e-01 2.115702101997008810e+00 3.442849501575437898e+00 2.800401209424063786e+00 3.449961185327442781e+00 5.036085432173970089e-01 2.248916145819285006e+00 6.163700037166719436e-01 5.050124540358289504e-01 3.258577560817383367e-01 1.681699847687974092e-01 4.820828474643999023e-02 3.607821769883750029e-01 1.001989318125017459e+00 4.312271789720297233e-01 3.738033581731346477e-01 1.226470543169084909e-01 5.296734911210998487e-01 1.660201939274633665e-01 5.254826020708032452e-02 3.204510240896404905e-01 4.557820353691781068e-01 9.046755150604864071e-02 1.144567837562187607e-01 3.091315187735864112e-01 4.018831563125713213e-01 9.854703893478834742e-02 3.148104448970454050e-02 1.233104817997441732e-01 5.542884414973734408e-01 1.062448664854504177e+00 1.644828609348470083e+00 3.551302713348658472e+03 1.752669821987378964e+04 5.403168388394987232e+03 4.895173484801997432e+00 1.211659824082307879e-01 2.904996754907084380e-02 4.067190700596389624e-02 2.995017478753600471e-01 3.377499385310402391e-01 1.625974567338989152e-01 1.289871272216637499e-01 1.951555524126223629e-01 8.277603187593908507e-02 3.151499799462529339e-01 1.963843183746362409e-01 7.416965784575300924e-02 2.995897297663786124e-02 1.668148699727527162e-01 1.322523402213847954e-01 2.960327684771295598e-01 1.114905976986090286e-01 3.803216683796061814e-01 6.030416432964540857e-02 1.834710323841452079e-02 7.995307292632518326e-02 2.331878778492693649e-01 2.567532271812409950e-01 2.441705570525989077e-01 1.793300002702189755e-01 1.257088081479727504e-01 6.155123060425662061e-03 3.048329000493324795e-02 6.078460709376423687e-02 1.794046338487039760e-01 1.221763658269281877e-01 1.302180120125755874e-02 6.620743577931410828e-02 2.465102062410859940e-01 2.055605133583866817e-01 1.221466073344105729e-01 1.152199237607675203e-01 2.146709557443620461e-03 8.797003265475916711e-03 6.619713185189692040e-02 1.352938856121139177e-01 1.225199253237187619e-01 4.419362570064355733e-02 7.042022020341677513e-02 8.562934125076056280e-02 6.565603300083869276e-02 4.554479102437562765e-02 7.438504390538897004e-02 9.817425950009869839e-02 1.538558947215092065e-01 2.334688330065097239e-01 1.626142658220122161e-01 2.175251731004427744e-02 2.718863102765050818e-02 1.099952532207902761e-01 8.514427274168510917e-02 5.057734105736935248e+01 2.547327318550192103e+02 8.217815094613885663e+01 7.072466087526498024e-02 6.447568680662389175e-03 3.899440606485783146e-03 2.625061696190974028e-02 2.869166824354121847e-02 1.295295491889544674e-02 1.558431846829681257e-02 1.088794705771272825e-01 1.027661354826311380e-01 3.939740150456144674e-02 5.115153028848603428e-02 4.533188836541132000e-03 3.458522181493726283e-02 3.514009594293385913e-02 5.712095473563694702e-03 2.219495431280942531e-03 1.804209633279876433e-03 4.670686462331307635e-04 2.006118820729750965e-02
3.469658325498710116e-01 2.462862374998893711e-01 4.150096961051415456e-01 1.377523427202882900e+00 2.264027051289431824e+00 1.514542914992137446e+00 1.911269290783413344e-01 1.637997776941839956e-01 7.939896141156533860e-01 5.702450317230423060e-01 7.346812939876313786e-01 2.777128330865574202e-01 2.177435125005876826e-01 3.798118569109603659e-01 1.265764056816752081e+00 1.181842662511927822e+00 3.014451711399290801e-01 3.154364450268140607e-02 2.502909028974014127e-01 6.033131663355922880e-01 9.258376517716709886e-01 6.125495418339780285e-01 2.758776912715176777e-01 8.693301931852391584e-02 4.691881225017303092e-01 1.608179427828709540e-01 3.266830505765482950e+00 3.399289627476121289e+00 8.735715749722602341e-01 1.639461863199868641e-01 5.747350476942997971e-02 1.556712564118066522e-01 2.962280244715351143e-03 8.688972930615238566e-01 1.672747943392326686e+00 5.393653022000747255e-01 4.404718700954532440e-01 4.727690809149022177e-01 5.076279728260925106e-01 2.472793495927034513e-01 2.864534248374401293e-01 1.534571446969129171e+00 1.908781659377144502e+00 1.637193787986784832e+00 1.375770775818721203e+00 7.714223816004190937e-01 3.558397520441684558e-01 1.599380970554731829e-01 2.023467951747814353e-01 3.743828971216179857e-01 7.436026454297841592e-01 4.996601722030646897e-01 1.963963653288977249e-02 1.494422456784616771e-01 3.731396953514874368e-03 1.639034100287442564e-01 1.833821838703354468e+00 1.913977782988759202e+00 7.341693389322866414e-01 4.240864573248868674e-01 6.878092940615946338e-01 7.004352733616331372e-01 3.145675278408106845e-02 1.316763892577395290e-01 5.532040205051375059e-01 1.413023991973417492e-01 4.481969571940808139e-02 4.249597146123522129e-01 6.381118510030894253e-01 5.354728081418996810e-01 5.405347600828478427e-01 1.574905666980380703e-01 1.799035497948249171e-02 4.076698961563344353e-02 3.509415548773040135e-03 2.223154467112661240e-03 1.203281754427336925e-01 5.085324739157547347e-01 4.147078801198828546e-01 2.382039836934158605e-01 2.406769484394125636e-01 1.069936679790289141e-01 1.995314952112825502e-02 5.986764785290413921e-02 6.396501549864766489e-02 1.043996164019450057e-01 5.333875930206033456e-01 9.372896651626537734e-01 2.880914605580161547e-01 5.984165719317218607e-02 2.532855708106426795e-01 1.921394356013057803e-01 8.431758854888639354e-02 1.694106563421751144e-01 1.235154241960804630e-02 1.507523451445944851e-01 6.465108900224397770e-02 1.626295086935209896e-02 5.393508588976941853e-02 1.284452325420371299e-01 6.183564935288532460e-02 1.026242603628054473e-01 8.394554501573325833e-02 4.440048246795776782e-02 6.769925910573446060e-02 2.302601465345434015e-02 8.751435003511389863e-04 3.536699808572825454e-02 3.558387241555823199e-01 3.394648666572389062e-01 3.126984275539156088e-02 4.093594544629095694e-02 9.546599341412535800e-02 3.881396312312024865e-01 8.331965523036514998e-02 3.171984592915456687e+03 1.356949710071678783e+04 3.695292569236502004e+03 8.167850694017015911e-01 1.686048605349388385e-02 8.768501171622489210e-02 1.417607337805326939e-01 1.309591532826117621e-01 1.471166466099692316e-01 3.995029535610546134e-02 1.144892674621718863e-02 9.586787085450615420e-02 3.909359679439275426e-01 1.910937897504833005e-01 1.818955206882311984e-03 6.009454338017236608e-02 7.161279988823995857e-02 9.164421851110415504e-03 1.012791381347462188e-01 2.154666404707268057e-01 2.047935970276245632e-01 2.666001377765664371e-01 9.970050991017792574e-02 4.082860795328106807e-02 1.274991763486690022e-01 8.228041114820738855e-02 1.745741023190910957e-02 3.591016774289645247e-02 2.970472182444138312e-02 3.332147821827596140e-02 4.616283962833885035e-02 2.200781229486420132e-01 9.208419342733660529e-02 1.255784268987911179e-02 1.663353694688943967e-03 2.313413844942925363e-03 7.267952247843097006e-03 8.896670060511055467e-02 7.698481738919439599e-02 5.783084398061777431e-02 4.841341082618096786e-02 1.594977002587948389e-01 1.606121255938138537e-01 3.448178076532138620e-02 3.842154138718178839e-03 1.152544362097494314e-02 2.319918377089401698e-02 5.220989994147472169e-02 1.607988215629178527e-02 5.480831055016142711e-04 2.062930886875475461e-02 5.801112862742093673e-02 1.798732793292292520e-01 1.265235738438480473e-01 7.832679161740431495e-02 2.175159436306155886e-04 7.328004364154647350e-03 3.670673613508603633e-02 2.328494743746338871e-02 1.082161448005947331e-02 7.562708744681147266e+01 3.159610551346668785e+02 8.461575708528229711e+01 3.246902142003896957e-02 2.034765704633764022e-02 2.221795108174600547e-02 7.975213361651890820e-02 1.400932540030837559e-01 1.242699738575228224e-01 5.497838305396585135e-02 6.291720473956180504e-03 1.608927338259139679e-03 8.853930583650986355e-03 2.483369365893852918e-02 1.795467262269583031e-02 3.323880028928884005e-03 1.661158270500030440e-02 5.453447443154831736e-02 1.784155340806070633e-02 1.175338878287970033e-02 3.199841461105785642e-03 2.699827517403401850e-02 3.056077240289101771e-01 1.123827856859079599e+00 9.599670728253546503e-01 3.171751162337271279e-01 7.474626967739781414e-01 1.328029706104665753e+00 5.845844082973351563e-01 1.862966135844770776e-02 7.104266443690333312e-03 1.093548438600723399e-01 9.009750221769782796e-02 1.394335949791130347e-01 3.384677953099297087e-01 4.637555078735390857e-01 6.167879605139064969e-01 2.861962147082902641e-01 3.912923397729647923e-01 4.749341737580253797e-01 2.415919943046695162e-01 3.363545818372086216e-01 3.654974796722313540e-02 3.302613977065727013e-01 2.176136429853804621e+00 4.705684460423139370e+00 1.540279077692413123e+00 5.303389348367517186e+00 1.765960512536504368e+01 7.506624017095757218e+00 1.805857021252316175e-01 1.394393801878338834e+00 9.841617253514359120e+00 1.903957722934756180e+00 6.092437349139391278e-01 1.262810996083426174e+00 2.599820920844856165e+00 2.851478198448080370e+00 1.151411707260961315e+00 1.317587599649136187e+00 5.810941257460982001e-01 5.140754028054010660e-02 2.749050678008279139e-02 4.561717808197536250e-01 7.828894254171071543e-01 1.045478581124424267e+00 1.444902986383785004e+00 1.350493214286542010e+00 9.026263856575372779e-01 1.308167371196990558e+00 1.310227532966248498e+00 1.294163458486403684e+00 2.699510916419747719e+00 3.059977478538288942e+00 1.040053285682327022e+00 9.488559976802412033e-01 2.511307567660919782e-01 5.062224682944269638e-01 2.521687009755381403e+00 4.821842215218135053e+00 7.258012922709308867e+00 5.947659768415642034e+00 7.406932888932107328e-01 2.753586531270746374e-01 1.097100368487541194e-01 3.226708587110254101e-01 5.107348451169907655e+00 3.604995159402969662e+00 1.314004067989503310e+00 6.964940037062392619e-01 1.085768521510285384e-01 6.040017160831707699e-01 7.201625273471259359e-01 6.752134337546340515e-01 6.318606487602307364e-01 1.662878540512104921e-03 5.352787195969597178e-01 2.671331023213334710e-01 2.040629930243959833e-01 1.082892346100669423e+00 1.519124732580416470e+00 1.359060924003774096e+00 2.280345094069502476e-01 8.203281317107052883e-01 3.053432481658975295e-01 2.440251240388090215e-01 3.101789152878245415e-03 3.265184402374524814e-02 8.565805756742778110e-02 1.961618529973399930e-02 1.928215986079317434e-01 2.939338939420457208e-01 2.774533362235384049e-01 2.706269852189197370e-02 1.918706662275047603e-01 3.601600549842803312e-01 1.862875390046608848e-01 2.130632178731779180e-01 5.872764352535577714e-01 4.793797618202795818e-01 3.931968526429056032e-01 1.762250292401298379e-01 1.041196378264388767e-01 1.458893363947518507e-01 1.560190167910566472e-01 2.212992086734942021e-01 5.750479718658290523e-02 2.738507115620909538e-01 3.330650460873512131e-01 1.084829728578751984e-01 5.902551984565487797e-02 1.887763929947658403e-02 7.708755098206185319e-02 1.134081528666189137e-01 1.163876269856640167e-01 1.135932019116681624e-01 4.796731738448440918e-01 4.056654532089649820e+03 1.763053917787177124e+04 4.808247738910787120e+03 1.801912785086355662e+00 7.806480957852016678e-01 3.611278627011519360e-01 6.025171874138824935e-01 7.301744767831563898e-01 3.233801240127089777e-02 2.039677596154161054e-01 3.471731714447884309e-02 1.021895806917466482e-01 6.385112464662922802e-03 6.168548916056070669e-03 3.076153018266870095e-03 6.847076977243875262e-02 9.441651815012444549e-02 1.051986338949516264e-02 1.184605511418594381e-01 5.557459616982594885e-02 2.799911569177555761e-03 2.003055739325309836e-01 4.433684728917749451e-01 6.986962041508881782e-02 4.171484562356768400e-03 2.661097818459198794e-02 3.306468104936245711e-02 8.777686187443334287e-02 8.433840973341809322e-02 9.178446527820015299e-02 4.274691441042354212e-01 3.607914351912958617e-01 8.968072394174701756e-02 1.067947240738125608e-01 1.452362626712478712e-02 6.716752402481507289e-02 2.209913482167946419e-01 2.126796265710569345e-01 8.775690329036403559e-02 2.483816897595001946e-02 6.015669762968738933e-03 1.267308609054048490e-02 3.547712119154503019e-02 3.204581875615328951e-02 2.522868423054579201e-02 2.515741274818482712e-02 4.550469013366754273e-02 3.818437301919912902e-02 2.796688226976301594e-02 9.723319462358780141e-02 2.768737624860159383e-02 8.938756856896783176e-02 1.036084505887728408e-01 3.914679213754959641e-02 4.528776450495972800e-02 1.086930753912124063e-02 4.549296121444078994e-02 1.067202065080091328e-01 7.761024659554038863e-02 3.665459912146144805e-02 7.179842687628232056e+01 3.111454798802731148e+02 8.584950375939786227e+01 4.151982912130526560e-02 3.601345603040638499e-02 9.913053190275657178e-02 5.847354743967668467e-02 7.117823396353642473e-02 4.906718354479461947e-02 2.265008299840962774e-02 6.721890623393034225e-02 1.234303156943821200e-01 6.403526625008892914e-02 1.444129776722827795e-02 2.897448917217658113e-03 1.206836217490714000e-03 2.553661394701321405e-02 2.805483683987023899e-02 2.097201968312418889e-03 2.984880220894186274e-03 1.071773337343416913e-03 2.487408378071351636e-02
3.233352433189443098e-01 7.210685406158523492e-02 1.940658744072681685e+00 6.181272804931069453e-01 2.316188274814102166e-01 3.221621951642640314e-01 3.923391067432536738e-01 2.928946545900896758e-01 2.390448354703674783e-01 3.386084635012557298e-01 5.932544371378383197e-01 6.552725512001528196e-01 2.255072670959869241e-01 1.995716125467951185e-01 7.307479332432189612e-01 6.784257131720049516e-01 9.343222762880587506e-02 1.418556884115622016e-02 2.315004064133746042e-01 3.664485749140506954e-01 1.189420069115504908e-01 2.277954046967625990e-01 4.042939330318980340e-01 4.623637653506959544e-01 5.029881032219088999e-01 3.118696557000786296e+00 5.110461017380749205e+00 1.330840374510233737e+00 1.892160399147902461e-01 3.237295081527222229e-01 1.288174483587466668e+00 5.696727717154835835e-01 1.988077989629613018e-01 2.090189016717396431e-01 1.800839006252480112e-01 3.043884579008612756e-01 7.600472911970257428e-02 7.472611659094090600e-03 5.506970602936611670e-01 8.304209046115902382e-01 1.104870558135309655e-01 1.717642113783842683e-01 7.375764727041316839e-03 9.548804070414625145e-02 9.358269174648521996e-03 1.595688887312959603e-01 2.801656040551213644e-01 5.797441597356552123e-02 4.039110355479566539e-01 8.571935794709817369e-02 7.390171520989594067e-02 9.101529219782743263e-02 5.810397076199478282e-03 4.113445671202412696e-02 1.288615492390461637e-01 1.128473706443769098e+00 3.220545412211895719e+00 7.144756757535705161e-01 1.461246461971236199e-01 4.127340071116222808e-01 2.106217191963449253e-01 8.247152028886931552e-01 3.712765867340282466e-01 1.785295385190426021e-01 8.878051323513824755e-01 6.109124268834078553e-01 5.332842527534701477e-02 1.029363952348712474e-01 4.837873126622710407e-02 5.997117094981480045e-02 6.023842636376527948e-02 1.125084498778346764e-01 4.606176528059151981e-02 1.460160606424704688e-01 3.953623140401372749e-01 1.191802542224580375e-01 2.306009846114277523e-03 3.006893387826812397e-02 1.353235308290207384e-01 1.578314714387134624e-02 4.190974698823462380e-02 1.275977572642588986e-01 5.515961997650511983e-02 7.205153969771765921e-02 4.168968202542540358e-02 1.636283979990486304e-01 5.094502575551348444e-01 1.431691728903240202e-01 2.316459470404820531e-02 3.485756632663961629e-01 4.899909398980701880e-01 1.491141780636118519e-01 2.063129646932693462e-01 4.239103676639722207e-01 4.675438812210025441e-02 7.248966531224348975e-02 8.905074765858685126e-02 2.763541132654416810e-01 5.978582312932387288e-02 2.273223672595980904e-02 1.574409898913153860e-01 2.639737008201265001e-01 2.201410235766779744e-01 6.348931633765575455e-02 1.562305314487439506e-03 1.470022425287240142e-01 3.704192003501490665e-02 1.387476359777470858e-01 1.411807400875072227e-01 6.750205896802886907e-02 6.444368870803048044e-02 3.331802123362839069e-02 6.176813106968562228e-02 2.469287149051510866e-01 8.978240398773931208e-01 3.037062750826974479e+03 1.361097624348606769e+04 3.793011032827268082e+03 2.665116302261231751e-01 4.256080723217636752e-01 6.734915656098545977e-02 4.654073136999525850e-02 4.216859166672553422e-02 6.349081810575408352e-03 5.784123826548352720e-02 7.717925218019937306e-02 1.648947689176055997e-01 8.601212999569551876e-02 2.174349900041897335e-02 1.814929491784821394e-02 2.842251384966119811e-03 6.213271088284038311e-03 1.075282335594648312e-03 2.733315500008068853e-03 7.805939926283146993e-03 1.865443165358583386e-02 2.934551907077312741e-02 1.373942534109126590e-02 7.142627247758923971e-03 1.566894263418211475e-02 3.180329068166397322e-02 6.585078470405075768e-02 3.290752323171543953e-02 2.752963489173740688e-02 5.285899337633280515e-02 8.354380623664066363e-02 2.694309961494981143e-01 7.706325518531684238e-02 3.901161392788253524e-02 1.041972853113221492e-01 3.360790424916990093e-02 1.328319938448364705e-02 2.094512002611640528e-02 9.250614353608975493e-02 3.305433815578818352e-02 8.879937186795272899e-03 2.691738126885324586e-02 1.254520221091355858e-01 8.755583635374182550e-02 5.398316378656223269e-02 1.130629257718122338e-01 3.485242150785004822e-02 4.415798323256298757e-02 2.547850398243805756e-02 5.398790695542898116e-03 1.046440362057668959e-02 5.303918843733705646e-02 6.386142252114181128e-02 4.700449360113492098e-02 1.234128685858699656e-02 3.761142148039392508e-02 1.494826704796121952e-02 4.205665184301160542e-02 5.851237704409791712e-02 1.691495276179907636e-01 5.188667368990046924e+01 2.667295719951051183e+02 7.917421897707052381e+01 1.442183916012469529e-02 4.181557222186148282e-02 4.279524426641421325e-02 7.969302706954992099e-02 3.491654528002940960e-02 4.759856196345867152e-02 9.355474648780923164e-02 1.382452352896597347e-01 1.125654723332526336e-01 7.066731654640412419e-02 4.188072084585565957e-02 3.073025383666665861e-02 1.293478762920757287e-02 1.096579698629438285e-02 3.219208506526178432e-02 2.099877813724679992e-02 1.062015344732548938e-02 1.004821563545752090e-02 1.525317283268841102e-03 2.031170018154905277e-01 4.734559011484155144e-01 7.867681192448851002e-01 1.067967601446848797e-01 2.629537197348748023e-01 1.063465958311879955e-01 1.595760313790378637e-01 6.637530601508369321e-02 6.723596572937036442e-02 1.394719709949454045e-01 3.575242809894347285e-01 3.416770576387764824e-01 1.816598843788896564e-02 4.583482789819220415e-01 1.577269844368519580e-01 7.448662973234151247e-03 1.259809980627837889e-01 2.328059161424368417e-01 5.728921423893806181e-02 1.906452535367760548e-01 5.451548016094525106e-01 4.783446255239658385e-01 2.308824609025452446e-01 5.607973365675579247e-01 9.212428948465943845e-01 9.692473285448581777e-01 2.889708534859858791e+00 7.435659414969562064e+00 4.516799987149600071e+00 7.613892434865998204e+00 2.102363485829316314e+00 1.936895500084707678e-01 1.197136189817264995e+00 5.034139179376289075e-01 1.272926668339818823e+00 6.779327972740997188e-01 8.550588759831473373e-01 2.214730657172511830e+00 1.302393776835941042e+00 1.529025932026796930e+00 4.501772767686826882e-01 9.585701651233999865e-01 6.468034702863973973e-01 2.127690030972923529e-01 4.464695970400526237e-01 2.923107378134757739e-01 3.242929438369758777e-01 6.804182672817420119e-02 4.061550689348934484e-01 6.685125099268217630e-01 5.071005515310014755e-02 1.180389349390954246e-01 1.715949423596766055e+00 2.532136899646446615e+00 8.832968151254171341e-01 9.043176187330358440e-01 3.465669154021612020e+00 3.233692785874087150e-01 3.566953429377273666e-01 1.575259467025170279e+00 5.318352781508405513e+00 5.935456781369834012e+00 4.531398676155237837e+00 9.974219001808087848e-01 6.548142528639805393e-02 1.884461958227128475e+00 3.512055175198523838e+00 6.079335114359648573e-01 1.402600909833637166e+00 2.415487415412641781e+00 1.745906366245385533e+00 5.979461776759661396e-01 7.754115397398610998e-01 3.034054100958561984e-01 3.501946257074095015e-01 5.019266986594680402e-01 2.799528206705497735e-01 3.465369007610017427e-01 6.378109488814613925e-01 6.027126464154514141e-01 1.303688395584543802e-01 7.030761714551106989e-01 1.103925259189501462e+00 1.817558200871471907e+00 1.195380746930460036e+00 9.807558516268567450e-01 1.299413908439395415e+00 1.872169177477960522e+00 8.706026767666906752e-01 2.374682778176583856e-03 1.835595468359945692e-01 1.942738316750831640e-01 1.693417143742009245e-01 7.876368378610894283e-02 2.225672571605895045e-01 6.528292561745794309e-01 9.243351959392874517e-02 2.827169087826320593e-01 6.984336029068319851e-01 7.683566200920982636e-01 1.787625603160169774e-01 3.347626644214441449e-01 2.605604939027421005e-02 8.090868237981467537e-02 2.784897586570081462e-01 4.494980346656764214e-02 4.376798996230092387e-01 2.853212793201471142e-01 3.736691174743607922e-03 2.615987935011991963e-02 3.303914328373747794e-02 2.424925282210808539e-02 1.126940135275494442e-01 2.834102058385576384e-02 6.559865654996439588e-01 3.959132797645806932e+03 1.759664360093341747e+04 4.886214523581442336e+03 1.464794152375161751e-01 5.942267535922374222e-01 1.866720204383944259e-01 2.188481078898638910e-01 2.029399614546714137e-01 4.147770415679919997e-01 5.111469585256993575e-01 5.230444188376596332e-02 1.377263863040375236e-01 2.971825519465032261e-01 2.795767613541072852e-02 5.979395562944362502e-02 2.186152188198608459e-01 2.614289326864964180e-01 1.087013306547810754e-01 1.112093960630198552e-01 3.186683856147542321e-02 1.302939529893120708e-02 1.699321758912012703e-01 1.273837272188934333e-01 3.236173614086457900e-02 1.293203617481297474e-01 1.462147935466993898e-01 8.821915827334489424e-02 9.948870768006231810e-03 7.699828790907428666e-02 4.044390291715958818e-02 8.598555776982999554e-02 3.865125735906880799e-01 1.764145004004943340e-01 5.436473681368517857e-02 2.874900115847204077e-02 2.789528581965614040e-03 2.838109476312505874e-02 3.038161830853821146e-02 4.057246705488792848e-03 1.952991997673195201e-02 4.210962346859078304e-02 1.243346620755892730e-02 3.511451514594338130e-02 1.110329154990987409e-02 1.030637187404886967e-01 8.571044673867253549e-02 9.008713060620915369e-02 3.213365175038007671e-02 5.924523028023249288e-02 2.853836372512330924e-02 2.093520675824532898e-02 1.869879173945620740e-02 8.580717870126086666e-02 9.422118353547770386e-02 6.142227788369086089e-02 6.734954965162706642e-02 4.393063497378923293e-02 4.438954740762977814e-04 8.739592241544691387e-03 3.563790406469491412e-02 5.089625261508182774e+01 2.554681171590918893e+02 7.727381364660419649e+01 5.855514194603761435e-02 2.217905850233533802e-02 5.666560385259152011e-02 9.770494948282149039e-02 1.147759022185121519e-01 4.253283428207314809e-02 2.196267490323099841e-02 2.462499684887946641e-02 1.690763601339627734e-02 1.875908376676011305e-02 5.780841756844147528e-02 1.008852357718849624e-01 4.848736785263374482e-02 2.760217393395589594e-02 3.116187959577458588e-02 7.933017980871171285e-03 3.628844861608013228e-03 1.342818673008992769e-02 1.377471436778620337e-03
3.203337310102030155e-01 1.900543753023663074e+00 1.912120844712098977e+00 8.991285069865232460e-01 4.621733421869488323e-01 2.523033805720498179e-01 2.241189144795789068e-01 3.202791887581665220e-01 4.178472110340947787e-01 4.839389830578261775e-01 1.688391054698434868e-01 2.606975258367874929e-02 1.013559294211606732e-01 3.940284952141532848e-01 4.033187430678792373e-01 2.612127158295816098e-01 2.670617585593227372e-01 1.403611617638924336e-01 1.375958635912430672e-01 2.172182666562917641e-02 3.197719352120000774e-02 1.724395262730459844e-01 6.924625977230709495e-01 7.196285499182903944e-01 7.724811339347348316e-01 1.594786493839816521e-01 4.256754195871537583e+00 3.238579762049908606e+00 1.007457238699613067e-01 5.223916728321821301e-01 7.946974787586774669e-01 6.330648240370397861e-01 9.015249623734593598e-01 1.134120991713261528e+00 8.288835486803448616e-01 3.431861606741263837e-01 4.203849090855849568e-01 1.315881099274378574e+00 2.700303613470700914e-01 5.286754949210322602e-02 3.008770463538509299e-01 5.727925289785371632e-01 5.002685440423507851e-02 3.563831290034846777e-02 8.507446580010444293e-02 6.719227652110445481e-01 1.819079449346506117e+00 1.116930624211394107e+00 1.362549801613754941e-01 9.552263312351350066e-02 6.931009180858274665e-02 1.055640722159452011e-01 8.826149712138463554e-01 5.048433805589866985e-01 3.190642275093489438e-02 1.031636308455029294e+00 2.931775993127467839e+00 4.626466538338156465e-01 8.576720569396181770e-02 1.488696764410727402e-01 2.660261695841995566e-01 5.077635886473063492e-02 3.793801126196992834e-01 6.359502521373415762e-01 5.885031238977113111e-01 1.031524773470426370e-01 3.783419610443324865e-01 6.046111199554877746e-01 1.968227792630446171e-01 1.072658997057757690e-01 1.528005797481450379e-01 3.872458140507503699e-01 2.349459212283711851e-01 1.046698248404477616e-01 7.910904450179285785e-01 4.937584038583446300e-01 9.019916575963247973e-02 3.623242309084140911e-01 2.229868715900957810e-01 1.437205908629554663e-01 4.552535629123400512e-02 9.558534283031790146e-02 2.340328061696546613e-01 6.345325556062139105e-01 4.430496898403560313e-01 3.741316542677548540e-01 3.877699818743756133e-01 3.112529746890945193e-01 1.183216578203167835e+00 8.819371438983754086e-01 2.022549584707815651e-01 1.321731653310625511e-02 7.080820507462445151e-03 1.180603487165373250e-01 1.733878006599985366e-01 5.508643766408641979e-02 2.258790629902499292e-01 3.370727615890175000e-01 1.639039130263597321e-01 1.407308243795587777e-01 3.341730702779273365e-02 3.283220426602425496e-02 9.023588739980757667e-02 1.314983076078943269e-01 2.254430672221445497e-01 1.489828339667853829e-01 7.101301690888914275e-02 2.824296540367537967e-02 2.997501186161013326e-02 1.730740459753784405e-02 1.528050320779968541e-03 2.822682165166648036e-02 2.073015266514671370e-02 2.668371422851568142e-01 5.292528563996089508e-01 2.983104642660362515e+03 1.348146210227258598e+04 3.839981722560132312e+03 1.608635238803207468e+00 8.758872412682160158e-02 2.644397745614250894e-01 3.557127565799271356e-03 7.154937360279735314e-02 4.250426713545409031e-04 1.105739136877454884e-02 1.506975216091596403e-01 9.347765615818112717e-02 1.818623786668737419e-01 4.546983598226108508e-02 3.503691103860970962e-02 5.474074329555159157e-02 3.179885992127758770e-02 7.652508893782275501e-02 2.654017170844328449e-02 4.618989200671137253e-03 8.352156164421903339e-02 2.079010020752662113e-01 1.394253013602430868e-01 8.843250139472794147e-02 2.035918658898732900e-02 3.583145436309070897e-02 5.891623844991619036e-02 6.640174791454185599e-02 8.638600288027874219e-02 8.902426623737631772e-02 1.145163927558178613e-01 8.579484351810080789e-02 1.563004008947894291e-03 1.087921236043999651e-01 1.366413005995147922e-01 1.227986495097709990e-01 1.226666013238648656e-01 4.492882369478117671e-02 3.715757569353030955e-03 5.723139399820129612e-03 3.904578670960488773e-02 2.467709109538303650e-02 1.103586012787144931e-02 3.050031445160221455e-02 5.947917461790980242e-02 4.128845024659838492e-02 4.749718110389541254e-05 2.473489437795217336e-03 5.022315210238439791e-03 2.215349035865497775e-03 7.043519852957563776e-03 4.035160512315912051e-02 7.601269192488771531e-02 3.078513885615426562e-02 1.873233450628895500e-02 4.479463869565107614e-02 3.578432470355474848e-02 4.029625910142351636e-02 3.124357783354162615e-02 9.077849532253617904e-02 5.876677379108279098e+01 2.966797852929034320e+02 9.145844064046019639e+01 1.301756476912439564e-01 3.689217934023588524e-02 7.734194442659753088e-02 2.245833956246025623e-02 4.177803202455946871e-03 7.641392787156818349e-03 3.553737773358315710e-03 2.320726473108417846e-03 3.888740998000797533e-02 2.966364182566264690e-02 1.053504909506877349e-02 3.311377128709796364e-02 1.592448713574658170e-02 3.106958195809918569e-03 1.085733122388644542e-02 3.780573915367806820e-02 1.907728380621390510e-02 2.947450826583398846e-03 1.494335768267754209e-02 3.008799740880345186e-01 5.333756018520753317e-01 8.883206595835694275e-01 8.490729153073844904e-01 3.165838517765509064e-01 9.573590732143526238e-02 7.057285029049106817e-02 6.398325383638804598e-02 3.027374422299802803e-01 2.477310413319817883e-01 1.024221541508703454e-01 7.128788342541160505e-02 4.359231377115506401e-02 1.702995263376831381e-01 5.070497962621375171e-02 1.064439985646843667e-01 3.000993481513126726e-01 7.053595791847415697e-01 6.800372439119228840e-01 6.531670014763979459e-02 3.028058882448301722e-02 6.801378396680904936e-01 1.827877147275374370e-01 3.112793972291605926e-01 3.888588279573798601e-01 3.567279954769138617e-01 2.901187667688908789e+00 1.104923997235691857e+01 1.705080554772740120e+00 6.059061974260033345e+00 7.928898613412384222e+00 3.740856098827070486e+00 5.192733156240849635e-01 4.000009673168713142e+00 5.460204824078624064e+00 8.236195052170041109e+00 5.214129110664363687e+00 2.123373677071353161e+00 1.361052363916552543e-01 4.279282226962828894e-01 1.798737264828130789e+00 2.671918964261123630e+00 3.273360251021211753e-01 2.320488186060516433e-01 3.432508532974225535e-01 1.033196330026186771e-01 4.849249370875561432e-02 1.676910405062778997e+00 4.164229689168444715e+00 1.926190499267635303e+00 1.078981583000435673e+00 1.831633422776486331e+00 4.271619791476724437e+00 2.001530389110714570e+00 6.388926486227458623e-01 1.208340424942793367e+00 3.141180413244032188e+00 1.061800033762343221e+00 2.957023108306443548e-01 2.180139671615936692e+00 2.762696483096419353e+00 9.115447111067007668e-01 1.170989998953098965e+00 5.680756339572327285e+00 6.547507987283990083e+00 1.162221350455130198e+00 1.877916644377692235e+00 8.423203010285610359e-01 7.159144086028755849e-01 1.947947466106290770e+00 1.022621541275823276e+00 1.141713378712541777e-01 1.620218012362999449e-01 1.684107366418733376e-01 4.530697092913108515e-01 2.036682169022200561e+00 1.888337972959072353e+00 4.411249003581902417e-01 8.042640894887491676e-01 1.159901485926529419e-01 1.233141019070536221e-01 8.828293389642520861e-01 2.109194958729848857e+00 1.096371043387809774e+00 7.725322555401046287e-01 2.753323830236518166e-01 3.379501903655058870e-01 9.230697036263757482e-01 1.654629796248132223e+00 7.628778262393721699e-01 2.793001708663803706e-01 4.703579793075658988e-01 7.598395639991154527e-01 9.255726731662987650e-01 4.934774350115826991e-01 5.067721983806815489e-01 6.965871597517277192e-02 7.761698247453095723e-02 4.503318782694716305e-01 2.193420658940255230e-01 4.872500986369176501e-01 5.334797180693585661e-01 1.917291430618010654e-03 7.019207870366001023e-03 5.587509143466750094e-01 6.804519935336255099e-01 1.074466578482433238e-01 7.128678875167843154e-02 8.742012026547174575e-02 2.221802150095383011e-01 8.061347507941109269e-02 8.420371406776387679e-02 5.491064174282837829e-02 2.501237026515488737e-01 4.086890636914992103e-01 3.904317664984956082e+03 1.753676358385644926e+04 5.011125901191217963e+03 2.798856235303221585e+00 3.301056805965178753e-02 3.835061029724410320e-01 1.197304074289266967e-01 1.603071096582446842e-01 1.358402908559173949e-01 1.588911492318786367e-01 2.620349264764698649e-01 3.455656063313633508e-02 1.838283047154164740e-01 4.296660537109769917e-01 5.696732871293964662e-01 5.027675960341045913e-01 5.529783003593966711e-02 8.403017095409504034e-02 9.653747481723615187e-02 3.921266776233725548e-02 3.901598304733265576e-02 3.057580865679229362e-02 7.034872795525549949e-02 1.034891574105192558e-01 1.362375664289879051e-02 5.108970692752114878e-02 1.532193227820657644e-01 1.348263952301950452e-01 4.499441279412593614e-02 7.623451329894352646e-02 2.258704919858530447e-01 4.541204605235997782e-01 4.857545835102022869e-02 8.779008463222236214e-02 1.905010516143693378e-01 1.127722346637164905e-02 7.340960701085146034e-02 1.051102906099451589e-01 1.117031232411586084e-01 3.855883712085292347e-02 5.228867730103951839e-02 4.082565587230255894e-02 7.591918135256786604e-02 1.022659997054035097e-01 1.889320878450538935e-02 9.995897851828198372e-03 3.503464420594089301e-02 7.492948781342626159e-03 3.431684942444760550e-02 3.448050433664441583e-02 7.823396255427152168e-02 4.499915648710879623e-02 1.281592715416603884e-02 1.632319687420303537e-03 1.027161956168661829e-02 7.629245694131246702e-02 1.802153004662944702e-01 6.725868352328445710e-02 1.087975687974233330e-01 1.995275643664451079e-02 5.952894919224793568e+01 2.916444293645235462e+02 9.196744150976182652e+01 2.217259000518341516e-01 1.010352938546950699e-02 3.127921823695526370e-03 7.488195709953676150e-03 2.181502935765091756e-04 4.333074925105635800e-02 2.255228144176393487e-02 8.144237693046440033e-03 3.284952778684802760e-02 3.710137156048094048e-02 4.240880274488019464e-02 5.101994330812359424e-02 2.684673945154904609e-02 2.633370655189983672e-02 1.780148349505683916e-02 1.322528822544135826e-02 2.104561112539509588e-02 2.003172509442677565e-02 9.716936148245201507e-03
2.583884500712579357e-01 4.491009869036431956e-01 1.473041048770101780e-01 1.218184191038225173e+00 3.123889788687651548e-01 2.147320438675157372e-01 6.024750719522492526e-02 5.514135761464697971e-01 9.971347638333001306e-01 2.619639756402714625e-01 1.237941404702357952e-02 4.382321994824629058e-02 1.838538186073451208e-01 3.547121147771828409e-01 6.662618314151598498e-02 6.884089862824621653e-01 1.900194030408988377e+00 1.432132847219979910e+00 3.926218257030182901e-01 8.585623157469889355e-01 1.085763796813995763e-01 1.433474097810437387e-01 4.867804907694157079e-01 1.550523674515334738e-01 1.615796967854108146e-01 4.924380360699970316e-01 1.094989032087667402e+00 6.605841819358126976e-01 3.865395795761318587e-03 8.472471255064097928e-01 3.457128746222246085e-01 1.187341814157272024e+00 6.714992247570431561e-01 1.104757432977240134e-02 1.957479442491107946e-01 5.285313162969441647e-01 1.682327857037712593e-01 5.268818661719668756e-02 3.332907212499419680e-01 4.741003890575600233e-01 2.878416779343785370e-01 3.752512824466893715e-01 2.978147626796153191e-01 2.171906398016170969e-01 7.627790037190078642e-01 8.649833004874281084e-01 2.627389961605917090e-01 5.541206654684472932e-01 3.498182188596484221e-01 3.784879538412229405e-02 1.369751489448444437e-01 2.588710846686180234e-01 4.304032220891444438e-01 2.535254340956078489e-01 1.042547683748488718e-01 1.457047697875739845e+00 4.106439343644575857e+00 1.593716171997136444e+00 7.682405986864303538e-01 5.895488013420154827e-01 2.888145578445368011e-01 1.118672994260536263e-01 2.391858540025192104e-01 6.393994126022625180e-01 1.928577172227069758e-01 1.999906202644700093e-01 3.114038429400601826e-01 5.106622860982153178e-02 2.570148776585921557e-01 7.113932746755030623e-01 1.494274020089010890e-01 2.623169106159484176e-01 6.573693927039566676e-01 1.295528604409868778e-01 3.850445693782543477e-02 7.197026535574990204e-03 1.155621273106972324e-01 1.976476077262784847e-01 2.966253109142714950e-02 5.604699900277653607e-02 1.196564760768296515e-01 1.378927046367948994e-02 2.656524784563141783e-01 6.458630095510636826e-02 1.562754662109591131e-01 5.597627936534076420e-01 1.708644771365308790e+00 6.884338823384810180e-01 2.670447700036618008e-02 8.795788597810563769e-02 1.225489848296509726e-01 1.007113936538809630e-02 1.223589950505198642e-01 1.349455763835097910e-01 3.932483909352733897e-02 2.071254217444173581e-02 1.002124306787391950e-01 1.154662489689741237e-02 2.203012618439331438e-01 1.003352462812563406e-01 6.011132286822897658e-02 2.710820028829542538e-01 2.845484434020990050e-01 1.411158738337751073e-01 1.780154784930356934e-02 5.866248546659844076e-02 3.450439376067931246e-02 1.002233028565240464e-01 1.544085795321146690e-02 6.224892565867269634e-02 4.074016051441537584e-02 1.791809144936251999e-02 5.842075691717747710e-02 3.239914204859156016e-02 7.448394069316605082e-01 2.960282360208012051e+03 1.345253393093670638e+04 3.824712315585831675e+03 4.821828961086507270e-01 2.767612737439616999e-01 7.336762121929462331e-03 8.429668083075717716e-03 4.947043609512662490e-03 3.350819704269624062e-03 3.796141368366918317e-02 9.568213245814326251e-02 8.328531022159006703e-02 4.677257362767878873e-03 2.811194539148332769e-02 4.187919631284396649e-02 3.502559105351692355e-03 2.689792528687303536e-02 1.494747793263794811e-01 2.472785905913699733e-01 1.203063982252473019e-01 2.271747175151581435e-02 5.935624930041218106e-03 7.838515436895515665e-02 2.838422225978045055e-01 8.803448320698516183e-02 1.356354367826113072e-01 5.925933443973764592e-02 5.229985770174030296e-02 7.699143988594735200e-02 9.931923798709417495e-02 7.457280279323733573e-03 1.171390638756659823e-02 5.507460052873277417e-02 4.130591711735012023e-02 1.152357712346448321e-01 1.791977830921726023e-01 7.272631375372461127e-02 1.132111820671354192e-02 7.276565384424336577e-03 6.434789497174291106e-02 6.201518101347594514e-02 4.444968440147920030e-02 4.242362537937498235e-02 2.154131885798737239e-02 5.117489426418549842e-02 3.737579242310999639e-02 2.050325025463101136e-02 4.333556402417712561e-02 2.130311532523178342e-02 2.340944020169285003e-02 3.456684247201480330e-04 2.217394368516700451e-02 3.957379484733075312e-03 1.649254267827615361e-01 1.799234073728647465e-01 1.225849304103419912e-02 3.117613924066472975e-02 1.000242584429318488e-01 3.938937104295582581e-02 4.229420241437568950e-03 7.193278348692500401e+01 3.254082010462118433e+02 9.544751662251586311e+01 4.324497154439487651e-02 3.720351863707217072e-03 4.557114598233438091e-02 5.791850023376037514e-03 6.967653706665190294e-02 6.040397831932082379e-02 1.753026530949606046e-02 1.453987171794743002e-02 3.451039683256236501e-02 1.342051272647546388e-02 2.570773025490925498e-02 4.909794665228510609e-03 4.899881091153978491e-02 4.602060730945240624e-02 1.912730979998505249e-02 1.291016244275616787e-02 6.887088506079185914e-03 1.906431819741523674e-03 2.369003159366133565e-02 1.849911604556223887e-01 6.849237718942245978e-01 3.108167146545773307e-01 1.132031118398953706e-01 4.924972792100926200e-02 1.338569789306364444e-01 3.655835256126611921e-02 4.928279258770769111e-01 4.601719146599097532e-01 2.121270271122578654e-01 5.407861819088067845e-01 3.931579460218510014e-01 6.858736675488141810e-02 1.046269158105801733e-02 1.474692383073687198e-02 1.573785886743349904e-01 3.405019626961962309e-02 2.268286857796671802e-02 8.572915530644822368e-01 1.585083790450457997e+00 2.039823560869849395e+00 1.507750631390287088e+00 2.468471304089025486e-01 4.644158735282277566e-03 1.272091350136010379e-01 2.369930518682308307e-01 6.148023809579274968e-01 4.942984683266440915e-01 2.613103090842850210e-02 1.417090397342499891e-02 5.426841135510692693e-01 1.976530300583452249e+00 2.163128832366300269e+00 7.043799915276345303e+00 1.888469339131998126e+01 1.253618154823178799e+01 4.904380092372644384e+00 7.182537053040470854e-01 1.572710224065191786e+00 3.665333968673884169e+00 2.547149486383599171e-01 9.005933195920359235e-01 2.270753625737234938e+00 8.224832439943442486e-01 1.554914923879901600e+00 2.853176796835411810e+00 2.519340364093630713e-01 1.279652227488625282e+00 5.375126490600785623e-01 5.219100088306711793e-01 6.216649224611444646e-01 3.478418953465937935e-02 6.600969407599528715e-02 4.576302476066180236e-01 4.993676878029621458e-01 2.075164649347062351e+00 4.608654842245479166e+00 1.601270548197125665e+00 3.447841997249506685e-01 2.679789320184258195e+00 1.521524514380349524e+00 2.947709285538411828e-01 2.680825468162290282e+00 3.190850643533582165e+00 6.762934008005894171e-01 2.937984915529416874e-01 2.332230252951986937e+00 1.624720954068489265e+00 2.281758244656459489e+00 4.058899096321618161e-01 3.398709837982264670e+00 5.940041414106285167e+00 3.264988577830870486e+00 3.133791264627621143e+00 2.180488498372656014e+00 4.527477886840353127e-01 8.755974422518436606e-02 1.722633767851846354e-01 9.132728128300016124e-01 1.117815841623882811e+00 7.470006546547355297e-01 6.158283092655945090e-01 1.814036404513570955e-01 5.609146843567422991e-01 1.356320103165777002e+00 7.758078784901338565e-02 5.370801904656505865e-01 4.492281634312130789e-01 2.388446172633774123e-01 6.641369640784825501e-01 1.021485060597772554e+00 1.625335612798269325e-01 2.712864657501064605e-02 2.230319094486423182e-01 4.696815669079319466e-01 1.129592025415502521e+00 2.543422981844684294e+00 1.560224665137022404e+00 7.919573379104129229e-02 6.484283850601851862e-02 1.157650194823111184e-01 7.773593572051437986e-03 5.495016856828759400e-01 9.737309179193642805e-01 3.942799645280221643e-01 5.504626963300845305e-02 1.634198558630090004e-01 5.886880336783215650e-01 1.676614107223365051e-03 7.314407276352925535e-01 4.347912370330807574e-01 2.021596288943020292e-01 2.098709208825154382e-01 2.696379275795271480e-01 1.284928494475010008e-01 3.975914931910025189e+03 1.772452039393799350e+04 5.030064158505148043e+03 8.862851060415377624e-01 3.002819854465981209e-01 1.758299148437323378e-01 1.073464761857578775e-02 2.061317330953330029e-01 1.717157467883629052e-01 5.815852998922128869e-02 6.742306414252813296e-02 1.728773416654505735e-01 3.205720205624817409e-01 6.190078149820920084e-01 3.747344454143772263e-01 5.484263305041977427e-03 9.219732899895718287e-03 1.219964175191008832e-01 1.418822059190684159e-01 1.726899473745436286e-01 3.272599534915983654e-01 2.596883316500461225e-01 2.344706047907998969e-01 6.627977007177233981e-02 1.782461973523417065e-01 2.255831041190070052e-01 2.762047882495554108e-01 7.972638821918688334e-01 5.322418134229395248e-01 2.419963885242979729e-01 2.565191000436419788e-01 6.993990476732622752e-02 2.061182931546000699e-02 1.901227871967215433e-01 2.236810393926332019e-01 7.685573856398925097e-02 1.003331780741725451e-02 1.336615835324347634e-01 1.835319705079688779e-01 2.861461803974325036e-01 9.280069916807129338e-02 2.561821148463081649e-02 4.355130697646603793e-02 3.871440798899844146e-03 8.295231476956167402e-03 4.282685643848556552e-03 1.677428404133698286e-02 3.555234576129173013e-02 4.211547820767064243e-02 3.870483605427180868e-02 1.097772603972908823e-01 1.426001810219021670e-01 1.464215490284981672e-02 1.354713738519846000e-01 1.323084558161248536e-01 1.000209677934558589e-01 2.444293971201266444e-02 7.492786930301162385e-02 1.066563698424928680e-01 1.499671768863753696e-01 7.265046971859332814e+01 3.179993490863168972e+02 9.214521024100695001e+01 7.729477027996725647e-02 1.491452412123910228e-02 1.697969020668004675e-02 5.883720967826763792e-02 2.187881281239185613e-02 1.275068036001950934e-02 3.819561535765191723e-02 2.801172180162992374e-03 4.664029367611570442e-02 2.266588370212676770e-02 5.861339751186774721e-02 3.630911448957795801e-02 3.471235752171582256e-02 4.016164118679733941e-02 3.595969649160503205e-03 1.346447696815269122e-02 2.500243689440928910e-02 4.507911160679369672e-02 3.536167576191194539e-02
9.620842487379382968e-01 9.345760639210417553e-01 1.554774745551134707e+00 7.586630421559158455e-01 7.800276739716780483e-01 9.803876233112031324e-02 5.954344253983786528e-01 6.306219094085887544e-01 2.902606429405450439e-01 6.427614047078394899e-01 8.919600778126233198e-01 9.653833195036416459e-01 1.081882767581216376e+00 6.488697434172104872e-01 1.221061020791322227e-01 6.242846285812612139e-01 1.619709208101272890e-01 5.833124180384947621e-01 7.931592937234981378e-01 4.417497419793448565e-01 5.746791038682284858e-02 6.141798494227175276e-01 4.358576034026493407e-01 4.741399698705308641e-01 1.963598686935234539e-01 2.819553473957225331e-01 2.400578808720991830e+00 1.862170421491811334e+00 1.073159962972820347e+00 1.891821601192527291e+00 1.509081479402931469e+00 9.518955588218565023e-01 3.019116736676668578e-01 9.072098469631757756e-02 5.413320690758524623e-02 9.822696337703632971e-03 3.991887359021338288e-01 9.982981998125288747e-01 5.186461197240340715e-01 5.406997726437611229e-01 2.900121088483255671e-01 2.388268583047394589e-01 1.370680986959547654e-01 2.627700343323906007e-01 4.909844350855410156e-01 3.892571757316358183e-01 5.787497330165440879e-01 5.285595899365742589e-01 7.410001294634940283e-01 2.886873197194591012e-01 4.047820687851568233e-01 3.966485187978420202e-01 1.932818303116943526e-01 1.411542884081941340e-01 5.749052164408809118e-02 3.956112425171584568e-01 1.622884997002705054e+00 5.504667398748510632e-01 1.318134441175586591e-01 3.949399819441855308e-02 2.029477962726527474e-01 5.288758303704531594e-01 5.225313774396111999e-01 4.841714401001116497e-01 1.309356137983387069e-01 4.000769991151780225e-01 8.070820424720928088e-01 2.590463140107823192e-01 2.176266715854968670e-01 1.978292052915937849e-01 1.279835292320652962e-01 1.407109016868954010e-01 2.416063701774425008e-03 3.177806537418984695e-02 1.600691561218070269e-01 4.667957434902685332e-01 2.786498934804687577e-01 1.892923146303144080e-02 7.045992853259605559e-02 7.583698869017489741e-02 3.324404361954980680e-01 9.813152689156334763e-02 1.996652287467033937e-01 2.559344191563229232e-01 1.668432955974479548e-01 2.213638735381843192e-01 4.354464022213923036e-01 1.213908855859726216e-01 2.799357147968418308e-02 1.570138947452011657e-01 1.607235402993009155e-01 1.496410715882066089e-01 2.313005584941550674e-02 8.283492058351254322e-03 5.105394678909420947e-04 2.823157191936044239e-02 9.000257588841514833e-03 4.744427547978784937e-02 2.046586808783907585e-01 2.048698258897266866e-01 1.055131402478142327e-01 2.384360439837046597e-01 2.603007735056556138e-01 1.125190457520961751e-01 3.829958596761379088e-04 6.329825123499431550e-02 1.006976671511468219e-01 2.132567529255174898e-01 7.809248348043813792e-02 5.800762384069748506e-02 5.140701787405266288e-02 1.115056141411166629e-01 2.821279450835820768e-01 1.529616111886062391e-01 4.561906313354691100e-01 3.111786482861592958e+03 1.349441165629517309e+04 3.659586232355168704e+03 5.682041225285546782e-01 5.712345488133341873e-04 8.847672622989592728e-02 2.411600280544639319e-01 1.177169217207581775e-01 2.666992219041880094e-02 1.930717224392686782e-01 1.009373717661617015e-01 4.973186567335643841e-03 7.032276475509739722e-02 2.328133639686192635e-01 4.493494739007220656e-02 2.908780751651266535e-03 1.076111765582436243e-02 7.578029554701640538e-04 2.450979756385486888e-02 5.811512576042059119e-02 2.409456491308497716e-03 8.185414929830971131e-03 9.152269553436326310e-02 1.804461359360100825e-01 9.682107157740259262e-02 6.429192866165783869e-04 3.171725366899803833e-02 1.154772301058626036e-02 1.646950309299688719e-01 3.268226485539064141e-01 5.456874009691000671e-01 5.093412339267899824e-01 1.475601985284707984e-01 2.701677419268271561e-03 5.917627717453366638e-03 1.851456957571587930e-02 4.595102645151852988e-02 3.667985746985379103e-02 2.664390049202113864e-01 1.242379954457185909e-01 4.790713550827990254e-03 5.127420705713669341e-02 1.700474086925160208e-02 1.320589189479113856e-01 1.412363311384580711e-01 1.513023817372671428e-02 5.454889514022627506e-02 6.630470439324345766e-02 1.064915052684267671e-01 7.437501475832473952e-02 2.799934002740994687e-02 3.939029933541446371e-02 2.166677663418547020e-02 9.855452384703890234e-02 7.250570010183859937e-02 3.117600027749214270e-02 8.350197341527973438e-02 4.658598511780999429e-02 1.902237639554819545e-02 1.309465337233188531e-01 1.184430250645843614e+02 4.955837778891506105e+02 1.320422760079677005e+02 2.303251724780387005e-02 1.800027143815283864e-02 5.048982933666485567e-02 2.257595711147587433e-02 2.639601271653549408e-02 3.925655063233795400e-02 2.635377243817570506e-02 1.840495576105562496e-03 1.620506883663254752e-02 1.137588826696044010e-03 3.823456160088172515e-05 2.081168958050360392e-03 3.038646487546309977e-02 4.000202260514103270e-02 1.285877732849664899e-04 6.080000688194506057e-03 3.566135448362941357e-02 4.861797126941641567e-02 2.887918412006664284e-02 5.864524881024857361e-01 5.894775660260879180e-01 1.382524621370789353e+00 1.856191195302122066e-01 1.205348330209024543e-01 3.362186225797696992e-01 4.726413241487722461e-01 2.294277822259728483e-01 1.169620950018954858e-01 2.370457702569646330e-02 2.626566832965813170e-01 4.917271608091042245e-01 1.555744798875249302e-01 7.908018440675377431e-03 2.845160136408000917e-01 5.231271306090491402e-01 3.348184400626743606e-01 1.385271626629138941e+00 4.481189640883839753e-01 1.952659493398213097e+00 2.619411903407389275e+00 9.020734785615418527e-01 2.154468491227644333e-01 2.884550063162670264e-01 2.415174763996908780e+00 2.201507202678977926e+00 4.096869666374447938e+00 1.127829855662401215e+01 4.992454819925518983e+00 1.298762818785179629e+00 6.713582219461261547e-01 9.112451530666796362e-01 1.414151456340307034e+00 9.075253048280659485e+00 4.501392069489431158e+00 1.004877034790315093e+00 1.181052498061367473e+00 7.404048107781520116e-01 3.098982786891388841e-01 6.410776212161638510e-01 9.999746386521071173e-01 2.380136898401701284e-01 5.896490902460265193e-01 4.399459546373203911e-01 1.398848708365334481e-01 3.043293165925586297e-01 3.211960029074981904e+00 3.053091008932688144e+00 1.366585443879922535e+00 5.323611750368013595e-01 3.601625432433914753e-01 1.370775792563128648e-01 1.206902526138777659e-01 3.902946972595495306e-02 2.015209282115392464e-01 4.388397079615888319e-01 2.097807018706468352e+00 2.251735638070369472e+00 2.298307743844279383e+00 7.803445756873154115e-01 5.611620348061412827e-02 6.064335798767841457e-01 3.285013229453531469e+00 2.508819170027355216e+00 4.500509449096128933e-01 1.624060671452151938e+00 2.100250585230894806e+00 6.518388582777523421e-01 1.678653754964147371e+00 1.803765000120782558e+00 8.773602465485864643e-01 6.019804768884860768e-02 6.203411659035668047e-01 3.440034056075480517e-01 8.199578512520266926e-01 3.740139389711860107e-01 3.781611286334655153e-01 4.726378143641602469e-01 3.331475271053479514e-01 4.334984690552694253e-02 2.294635984145167729e-01 2.179118136940257633e-01 6.126023182583311133e-01 9.237952787687797596e-01 9.236018873476899149e-02 3.388444147979389198e-01 4.384457855396406978e-01 3.981172215583883012e-01 5.103987607994764364e-01 6.232138788597737372e-02 5.982605250163702815e-01 6.049149904297059788e-01 4.971938607913217734e-02 2.467446985673305004e-01 3.065841853060964906e-01 1.837540618349561561e-01 4.643053983745254465e-01 4.554349702530136046e-01 7.975276133870811135e-01 4.575768359293243548e-01 9.694204969175072850e-02 3.532573066666359618e-01 5.019914301613533913e-01 1.957602385646664833e-01 1.558450204271930040e-01 9.696314912106140937e-02 2.839372918014919089e-01 2.302503040980866111e-01 8.598695570059507187e-02 5.142642502069550980e-01 4.204492376786664320e-01 4.158611021468843622e-02 2.647375388574988581e-02 9.777040225516123173e-02 3.009127190279859976e-01 4.083886223081810840e+03 1.758283877179838601e+04 4.751198223984642027e+03 9.106462576922598195e-01 2.632613259336439304e-01 5.590922074901315542e-01 2.994528164126721848e-01 7.122711461247850651e-02 1.270905888118944727e-01 9.973373339603526511e-02 2.800907048928681295e-02 3.035500995978407824e-03 9.138425236083198844e-02 2.665558109419519095e-01 3.183418852075876049e-01 3.524305848784896056e-01 3.744984460714978480e-01 2.234413961724580067e-01 2.291976342370564135e-01 4.463427040134258089e-02 3.716678463010743283e-02 5.435494153052061739e-02 1.356270457256467943e-01 2.325333122811522046e-01 2.386854098124475132e-01 2.089765826548678485e-01 8.680147327048000350e-02 2.157521675602735445e-01 2.158213153129154849e-01 1.791914219577952216e-01 4.523991267347127754e-01 4.592492110151863427e-01 1.229817245142099669e-01 9.327202178341919073e-03 3.397753182658427157e-02 2.508735846488275092e-02 1.360600908199142110e-02 9.147934855719325187e-03 4.946755336989604179e-02 6.717126839634797453e-02 4.536087212815665543e-03 5.769630785665527846e-03 1.876410552960122583e-03 1.013890341133692058e-02 3.784792090313303641e-03 1.953774091248709766e-02 5.097562842920675893e-03 8.870908244337206983e-03 1.980367810051287397e-02 4.612234990143627977e-02 8.667470080136834704e-03 2.981317292929676430e-03 3.869548962494061273e-02 4.972990730567247719e-02 1.642339816987944609e-02 9.188200129167703109e-03 7.809643949086317143e-03 5.679184529839041880e-03 3.845332624986493031e-02 6.891558499104968871e-02 1.191788101553063512e+02 4.961440479565605983e+02 1.305256097812223572e+02 1.365832506296115086e-02 1.337788320445493749e-02 1.679915403047820346e-02 6.957873610454613778e-02 5.914401759065327641e-02 6.745242769938250560e-02 1.114336802731030751e-01 1.508269313609468358e-02 9.418388346804577871e-03 1.041450146795511178e-02 3.089797444712495591e-03 6.475497736114360636e-03 1.425037777663332172e-02 9.235713716458298500e-03 1.931795040012203660e-03 1.142934798800230353e-03 1.334959601956829320e-02 8.584472657316551125e-03 1.301547686579188588e-02
2.798177324695180213e-01 2.901237763336943498e+00 2.664326364603804898e+00 3.690519434898646978e-01 6.796205770889154341e-01 1.288022216483468485e+00 1.470961122544612421e+00 1.794472000657461042e+00 1.679159724822961275e+00 9.005605577467583611e-01 1.667858600727764873e-01 5.965321480532499721e-02 1.204214652350123725e-02 2.615835903049421041e-01 1.415823727593872539e+00 7.787165612302091589e-01 1.074653519005085434e-01 3.764361531180023812e-01 8.701324405784168770e-01 5.776669162043910344e-01 4.372265512260772313e-01 5.039194976331459186e-01 6.432115072276062273e-02 5.357344103282872805e-01 2.144881174356297215e+00 2.769886053259928538e+00 5.035182937906506950e+00 7.940515699499364199e-01 4.023861353864718327e-01 9.732030704531124954e-01 2.592397128813165308e-01 5.650238417225282861e-01 6.355979184892970313e-01 2.885124323378348565e-01 5.965988620366403650e-01 4.286541012661982397e-01 2.802326371751359679e-01 1.677446967632908459e-01 1.875580393619158404e-02 2.435883527332575460e-01 9.471186020765738622e-02 1.114574668383715716e-01 2.327002517145010940e-01 5.251261478791716675e-01 3.210651852881413748e-01 4.560667522265371421e-02 2.540790598897484445e-02 2.023091122803203079e-01 5.873380678901439778e-01 2.523853547608202463e-01 6.680613301532464798e-02 1.682063688646964761e-01 6.105560647059082163e-02 1.282921891378557833e-01 1.276938856221666863e-01 2.538028911675886401e-01 1.288049223788015230e+00 3.722175311125232589e-01 1.114670225430278508e-02 4.569841530808683300e-02 4.955124724558563482e-02 4.812562856887729890e-01 9.969270470822134689e-01 4.590795318752478038e-01 7.779703908775294219e-02 7.406719999924259445e-01 8.816428358665762133e-01 3.600994837531734660e-01 7.609930105404168199e-02 9.772159569138634538e-02 2.006000889509877011e-02 1.473407756964443538e-01 2.012052323149865485e-01 1.025438807899017174e-01 2.443546579412543551e-01 8.341656161853826246e-02 1.303914121553834404e-01 6.124165435384069239e-02 1.590353702065059605e-01 7.329738115844126878e-02 2.159490909765726316e-03 2.842299071275627628e-02 1.087404144140558145e-02 9.574678884033507517e-03 2.688245975009316904e-02 2.418245263363481834e-01 5.913515217193042739e-01 2.667067284701769014e-01 1.772521602364827142e-01 2.977602224860270708e-01 1.364961507564090015e-01 1.020017292884213000e-01 1.142110377056823056e-01 1.913992190024884077e-01 1.197519932491632362e-02 7.736519363615323996e-02 3.079106820606686973e-02 1.725036350652098954e-02 9.368638027627938791e-02 3.047251828507698823e-01 4.552521252375010125e-02 2.578187612117545033e-02 4.046809374470389936e-02 3.159402877787324121e-02 1.807699794286693473e-01 1.736296768661748924e-01 2.999399759797276126e-03 1.412872855775062497e-01 1.419577694752983121e-01 2.320151552848814108e-02 2.923106056843958744e-01 1.476058180348419624e-01 5.397591375766497279e-02 5.976493524772370780e-02 1.567683800688483564e-01 3.233352369731280760e+03 1.360443903544972454e+04 3.594921665993846091e+03 1.190267276028917076e-01 6.568478889515089181e-01 9.144627761474686256e-01 4.373037021800057489e-01 1.604476845644242922e-01 3.394022821226847647e-02 1.422289950564622762e-01 1.910132174476209810e-01 2.586077354291859143e-01 1.015146231310240232e-01 9.925681599359192919e-02 8.518951328827674419e-02 4.063210466980907848e-02 4.685598214789549881e-03 1.724377042472363675e-02 3.212291344127483905e-02 1.355143647533793017e-01 1.187189076494984674e-01 5.986732215466811918e-02 4.564207078462344941e-02 1.249975883219480582e-02 2.055292340714863844e-02 9.229897145353570254e-02 5.746093894452374701e-02 6.725689863088261423e-03 6.617570306857381221e-03 4.663162131424158224e-02 1.131594228300899108e-03 1.179256070399369721e-01 1.292631867647335842e-01 1.525466107322299147e-01 4.703548267524546717e-02 1.476291646646548349e-02 2.072107138115357461e-02 3.492932798852629167e-02 4.135147023274644840e-02 3.070698368562210442e-02 9.621713845143011618e-03 8.035034891504144738e-02 6.216960319854025058e-02 1.967627049491641952e-02 6.045252639402066280e-02 1.941720920430605735e-01 1.008549542582352493e-01 8.948706605442864614e-02 9.108286276804027082e-02 5.345937466372530263e-03 8.168080663285106832e-03 3.423836474842569672e-02 3.005693624099147268e-02 3.983965520427863467e-04 9.785347780450733349e-03 9.689306529809843527e-02 6.026542299975433392e-02 4.167105349776158846e-02 3.479424169258946847e-02 3.213803108451617624e-02 9.917999372770624689e+01 4.364749314676586209e+02 1.206025066415977420e+02 2.255647486087223458e-02 1.047143341545187303e-02 2.692401205641049150e-02 2.035395119652923593e-02 7.237420347966148568e-03 3.059960286201868218e-02 1.901027139704871555e-02 1.500890141374374570e-02 4.124281916215172955e-02 1.534446175953467365e-03 8.994833042681848329e-03 1.186575352260840072e-02 2.123162172563664365e-03 5.198570672138525840e-03 2.934560568104914793e-03 1.060754764056394406e-02 5.155198077193982181e-02 2.898386268965831222e-02 2.920914978557583638e-03 7.630349642818451406e-01 2.749533918184371206e+00 1.489881030247130367e+00 9.974844503971420639e-01 1.242622877100168638e-01 3.878320765719341368e-01 8.303580701554157395e-01 5.283327902616459237e-01 6.029921677989278361e-01 6.339449417850673285e-01 9.785047191525152177e-02 4.390361604863587258e-02 4.180569156905552392e-02 3.742806698178682140e-02 2.063403528167571388e-01 2.756687114673163075e-01 3.904960825033360061e-01 3.686283549337195792e-02 7.038083568716673177e-01 1.072168634708415974e-01 2.901706012155168268e-02 6.511392245453465621e-01 4.505904757738196653e-02 3.367448400315921075e-01 4.249502820815880710e+00 1.324519646034962417e+00 2.117684759228894986e+00 6.690284578852222275e+00 8.099978001494443802e+00 8.423489334443431176e+00 1.848597665122132749e+00 6.517536387899680150e+00 1.076025459249101424e+01 6.823158587455100843e+00 2.201533562459159654e+00 1.032907357458565378e-01 5.473674217577879642e-01 4.602636380745004918e-01 3.619023215327371590e-02 2.183168671688378581e-01 1.634812006036003296e-01 3.592883299796107988e-01 1.025068610817886361e+00 5.194720834042945157e-01 8.088301120599687699e-02 6.440463127948357069e-01 8.002422015676961820e-02 1.615051762139740443e+00 2.510100368795086911e+00 2.939278630496887090e-01 3.609141245244280871e-02 5.452826624728610572e-01 2.750377055937076154e+00 2.567426792864032414e+00 1.399217993924748660e+00 3.371423356213703038e-01 1.633816915959412031e+00 7.943468588466361391e-01 4.721384155832976104e-01 5.951337025345109222e-01 1.232084080257262571e+00 5.725597326764111372e-01 3.480056406708393890e+00 2.950417509315542919e+00 5.435055725065252030e-01 5.473338034399143126e+00 5.401124779194016234e+00 1.779895565106772493e+00 1.016335305828275803e+00 7.742529104772177817e-02 3.113953866070164000e+00 5.009850812960645605e+00 2.754730544496822198e+00 7.805729500452357472e-01 5.428742783972765329e-01 4.209841528323445825e-01 1.510621327619301457e-01 2.675346423113739713e-01 2.375707061470975351e-02 2.698392468164884095e-01 6.903432144854624308e-01 3.259179068721270167e-01 5.408367096283153153e-01 3.548842687897204584e-01 6.143648467244234440e-02 6.062265968324948018e-01 1.003251348243047181e+00 4.721030733730079421e-01 5.696269962319129299e-01 1.679317847772912875e-01 2.558173934502927863e-02 1.146610394431420155e-01 4.181265111925735467e-01 2.250976211254178683e-01 1.130833949604495015e-01 2.511463599889272036e-01 4.625311853223246783e-01 3.915415028408953391e-01 1.132639565176069146e-01 2.842153042361258430e-01 4.958742721501879086e-02 4.901691611899974266e-01 5.837078725650910460e-01 2.651044875698750358e-01 2.642228763748508125e-01 5.192544857130089175e-01 1.190442491550729731e-01 4.140112808658492211e-02 5.299177906092373824e-01 8.241552446713003022e-01 2.957272252073586127e-01 3.377769672320788535e-03 1.773975171377872861e-02 2.944527226688698363e-03 2.469691930374900979e-01 4.194581742482111622e+03 1.776489058424541145e+04 4.740213169951546661e+03 8.848055235467624513e-01 3.358120623895222701e-01 8.620878866873470103e-02 5.639465077967824314e-02 8.236209869507765680e-02 1.113216415971438195e-01 1.793237049613301271e-01 6.445719550820029620e-02 1.521486560522268827e-01 1.160794838754598407e-01 3.143393601175496765e-02 6.973073345277672197e-02 1.740694235855025085e-01 3.535375271982025280e-01 2.429642593182338162e-01 4.147150858097931048e-02 1.307628932330994753e-01 1.454529901325461727e-01 1.816527368853131374e-01 8.752507814460028235e-02 3.673752597410018250e-02 6.769783175917648207e-03 3.770418056885919966e-02 2.026624976254409218e-03 2.505452837105027249e-03 1.999162292064495666e-02 3.775838367418919705e-02 5.252938352181656112e-02 1.610846283662755174e-01 1.177439061604591691e-01 1.796555517200276730e-01 1.034722989039691537e-02 4.873259030886648718e-02 2.488476932203270708e-02 9.839787169695639324e-02 2.169339585300972262e-02 1.275797423289389831e-01 6.586299106720265584e-02 6.986744954071325009e-03 5.559197119740395647e-03 3.304622422748737520e-02 1.116699418171334945e-01 7.527447936427385244e-02 1.537565542185613879e-02 5.669481884212401041e-02 1.550166230739459527e-01 1.099103928480895387e-01 2.614392898610446575e-02 7.082029171674691058e-03 9.177955122305710492e-03 3.340601739589403596e-02 5.834300602186663631e-02 5.157139874715334360e-02 6.431869602114738058e-03 4.327340497124607804e-02 9.073563569480965624e-03 6.628613582289492011e-03 1.048912618786286259e+02 4.471030165502752425e+02 1.207639936188410559e+02 7.319018727430491589e-02 3.578809146565803401e-02 4.143684466666225363e-02 6.575962759065412389e-02 1.359682497698019681e-02 3.732851087307052090e-02 4.308501883518577741e-02 1.426845450066671454e-02 2.680098539736583060e-02 1.025550087575985772e-02 5.090950271198455522e-03 2.760248983366185571e-02 3.433547156225435354e-02 2.964294183165477187e-02 1.095843480828528373e-02 1.483466512533853157e-02 3.993902796053649951e-02 3.099488047729356474e-02 3.054788059044243748e-02
